# dimensionless total [l(l+1)/2pi] C_l's
# for l=2 to 3000, i.e. number of multipoles equal to 2999
#
# -> if you prefer output in CAMB/HealPix/LensPix units/order, set 'format' to 'camb' in input file
# -> if you don't want to see such a header, set 'headers' to 'no' in input file
# -> for CMB lensing (phi), these are C_l^phi-phi for the lensing potential.
#    Remember the conversion factors:
#    C_l^dd (deflection) = l(l+1) C_l^phi-phi
#    C_l^gg (shear/convergence) = 1/4 (l(l+1))^2 C_l^phi-phi
#
# 1:l     2:TT                     3:EE                     4:TE                     5:BB                     6:phiphi                 7:TPhi                   8:Ephi               
    2       1.381928755306e-10       4.177094782774e-15       3.515564369118e-13       0.000000000000e+00       8.133080236960e-09       4.536420035075e-10      -1.843369752860e-12 
    3       1.306801529215e-10       5.354324528753e-15       3.955509973340e-13       0.000000000000e+00       5.066262599378e-09       3.221388314897e-10      -1.394802407603e-12 
    4       1.236098675541e-10       4.628696357473e-15       3.698429891245e-13       0.000000000000e+00       3.532559986600e-09       2.439242750128e-10      -9.125652456386e-13 
    5       1.183176252335e-10       3.086133515892e-15       3.149198978631e-13       0.000000000000e+00       2.639170679890e-09       1.926599723592e-10      -5.068849221350e-13 
    6       1.146882412428e-10       1.724627352589e-15       2.535962581016e-13       0.000000000000e+00       2.061124091519e-09       1.567338748872e-10      -2.080817390503e-13 
    7       1.123225021279e-10       9.315986518266e-16       1.990893635560e-13       0.000000000000e+00       1.662022285762e-09       1.303694251174e-10      -1.763643772566e-14 
    8       1.109418846726e-10       6.011233757112e-16       1.571725189934e-13       0.000000000000e+00       1.373774184314e-09       1.104009829656e-10       7.941242797021e-14 
    9       1.102969516183e-10       4.824436047907e-16       1.291201987582e-13       0.000000000000e+00       1.157685729470e-09       9.492688749754e-11       1.064230283673e-13 
   10       1.101579401450e-10       4.107647856901e-16       1.136065648515e-13       0.000000000000e+00       9.903851163872e-10       8.267415146351e-11       8.927552108816e-14 
   11       1.104645513016e-10       3.446577728788e-16       1.079474660672e-13       0.000000000000e+00       8.334063705307e-10       7.301613636527e-11       5.207151858100e-14 
   12       1.110664154299e-10       2.997741122993e-16       1.091090750599e-13       0.000000000000e+00       7.283710550991e-10       6.456885197226e-11       1.235525942170e-14 
   13       1.119130514917e-10       2.871025746366e-16       1.144022413094e-13       0.000000000000e+00       6.421270369121e-10       5.770499697708e-11      -1.792986967537e-14 
   14       1.129561040510e-10       2.986574037591e-16       1.217968748733e-13       0.000000000000e+00       5.703578217231e-10       5.172281740256e-11      -3.453351806841e-14 
   15       1.141836366885e-10       3.227417668182e-16       1.299765493245e-13       0.000000000000e+00       5.099344273519e-10       4.668924069007e-11      -3.760503732804e-14 
   16       1.155197906770e-10       3.568549733206e-16       1.383623831976e-13       0.000000000000e+00       4.585505262560e-10       4.234976824668e-11      -3.103886456276e-14 
   17       1.169921961656e-10       4.063553235863e-16       1.467202502084e-13       0.000000000000e+00       4.144637753304e-10       3.856334142892e-11      -2.001221378845e-14 
   18       1.185379747684e-10       4.767981093818e-16       1.552153045889e-13       0.000000000000e+00       3.761916408805e-10       3.526214055898e-11      -9.457769330418e-15 
   19       1.201682999669e-10       5.685502237980e-16       1.640824892307e-13       0.000000000000e+00       3.431308316131e-10       3.239930190616e-11      -2.027207351418e-15 
   20       1.218757340655e-10       6.795926532828e-16       1.735185659700e-13       0.000000000000e+00       3.140074417823e-10       2.985964181035e-11       5.266478795147e-16 
   21       1.236618411303e-10       8.093058907451e-16       1.834977869314e-13       0.000000000000e+00       2.883654572438e-10       2.759609068394e-11      -1.213263346963e-15 
   22       1.255006727124e-10       9.572055873297e-16       1.938343131394e-13       0.000000000000e+00       2.655933447419e-10       2.555042191924e-11      -5.457959122524e-15 
   23       1.273968320901e-10       1.123328903765e-15       2.041549573893e-13       0.000000000000e+00       2.453790676622e-10       2.371349877213e-11      -1.043352940692e-14 
   24       1.293436501749e-10       1.307764106398e-15       2.139940583936e-13       0.000000000000e+00       2.272562193571e-10       2.206873466783e-11      -1.426172415240e-14 
   25       1.313434607340e-10       1.510951993370e-15       2.231075237796e-13       0.000000000000e+00       2.110123107631e-10       2.059636341925e-11      -1.613729312724e-14 
   26       1.333855257018e-10       1.733579481214e-15       2.313178448808e-13       0.000000000000e+00       1.963540177543e-10       1.926118533245e-11      -1.576665148175e-14 
   27       1.354644936385e-10       1.977261462072e-15       2.385025258653e-13       0.000000000000e+00       1.831059626628e-10       1.804607146094e-11      -1.377859757912e-14 
   28       1.375680960401e-10       2.243940738885e-15       2.445844696810e-13       0.000000000000e+00       1.710402020896e-10       1.693192624315e-11      -1.117974500567e-14 
   29       1.397055612435e-10       2.535145345538e-15       2.496094591686e-13       0.000000000000e+00       1.600954519774e-10       1.591684633927e-11      -8.618205071809e-15 
   30       1.418816519228e-10       2.852324114280e-15       2.536970774673e-13       0.000000000000e+00       1.501545513526e-10       1.499521862801e-11      -6.744221544438e-15 
   31       1.440906541712e-10       3.196856935927e-15       2.569751098658e-13       0.000000000000e+00       1.410151567632e-10       1.415269570678e-11      -6.156788328453e-15 
   32       1.463355204509e-10       3.569597960718e-15       2.594157627360e-13       0.000000000000e+00       1.326302711879e-10       1.338065924669e-11      -6.676291205102e-15 
   33       1.486132180541e-10       3.971145068429e-15       2.609380027905e-13       0.000000000000e+00       1.249407575996e-10       1.266542009231e-11      -7.786365261829e-15 
   34       1.509138237518e-10       4.402064869314e-15       2.614424585755e-13       0.000000000000e+00       1.178392017183e-10       1.198991909684e-11      -8.911203686238e-15 
   35       1.532395906904e-10       4.863308472628e-15       2.607898691267e-13       0.000000000000e+00       1.112893902481e-10       1.135585463006e-11      -9.770320930509e-15 
   36       1.555908209976e-10       5.355934901514e-15       2.588123282583e-13       0.000000000000e+00       1.052389192272e-10       1.076853347077e-11      -1.013942186694e-14 
   37       1.579635415598e-10       5.880938767235e-15       2.553523101248e-13       0.000000000000e+00       9.960921074455e-11       1.023032503459e-11      -9.837448134011e-15 
   38       1.603617684923e-10       6.439037001787e-15       2.503832229758e-13       0.000000000000e+00       9.438581238030e-11       9.739184180167e-12      -9.011127069757e-15 
   39       1.627881484824e-10       7.030804662241e-15       2.439289773001e-13       0.000000000000e+00       8.955223634725e-11       9.289112937503e-12      -7.948085020211e-15 
   40       1.652399472594e-10       7.656724414038e-15       2.360332551812e-13       0.000000000000e+00       8.506248929373e-11       8.870142765317e-12      -7.006540741851e-15 
   41       1.677118561623e-10       8.317266212952e-15       2.267417042246e-13       0.000000000000e+00       8.085711485876e-11       8.471396889878e-12      -6.522140003102e-15 
   42       1.702068793063e-10       9.013171808884e-15       2.160386542149e-13       0.000000000000e+00       7.692379081211e-11       8.092251538166e-12      -6.481016809971e-15 
   43       1.727280322717e-10       9.745252872449e-15       2.038918257182e-13       0.000000000000e+00       7.325212529223e-11       7.734265248568e-12      -6.747981204996e-15 
   44       1.752749409814e-10       1.051431332840e-14       1.902694606318e-13       0.000000000000e+00       6.981547156802e-11       7.398019464412e-12      -7.152943619601e-15 
   45       1.778454056716e-10       1.132108717597e-14       1.751389284589e-13       0.000000000000e+00       6.658045780309e-11       7.083252927157e-12      -7.527999222692e-15 
   46       1.804414462502e-10       1.216602992963e-14       1.584622986524e-13       0.000000000000e+00       6.354202377705e-11       6.789524297899e-12      -7.836996445653e-15 
   47       1.830644897567e-10       1.304946472121e-14       1.401992638343e-13       0.000000000000e+00       6.069665711663e-11       6.515594941010e-12      -8.081026741962e-15 
   48       1.857134032642e-10       1.397163545881e-14       1.203081366306e-13       0.000000000000e+00       5.803182508435e-11       6.259147104599e-12      -8.262636867337e-15 
   49       1.883842656630e-10       1.493270318707e-14       9.874566927062e-14       0.000000000000e+00       5.552530365249e-11       6.016707065699e-12      -8.385927144666e-15 
   50       1.910725605109e-10       1.593276675541e-14       7.547038261586e-14       0.000000000000e+00       5.315187607855e-11       5.784639926002e-12      -8.459250158160e-15 
   51       1.937809857602e-10       1.697193988099e-14       5.045403706445e-14       0.000000000000e+00       5.090712872442e-11       5.562630636890e-12      -8.503942443348e-15 
   52       1.965133694062e-10       1.805028871204e-14       2.367296346046e-14       0.000000000000e+00       4.878895460648e-11       5.351015011044e-12      -8.548132772570e-15 
   53       1.992723221250e-10       1.916780691145e-14      -4.895189089749e-15       0.000000000000e+00       4.679043198817e-11       5.149764858196e-12      -8.624564279491e-15 
   54       2.020591229895e-10       2.032441316082e-14      -3.527146846850e-14       0.000000000000e+00       4.489950025391e-11       4.958461560932e-12      -8.770815097164e-15 
   55       2.048742370892e-10       2.152000691582e-14      -6.747349600282e-14       0.000000000000e+00       4.310264228933e-11       4.776507976245e-12      -9.017815436023e-15 
   56       2.077192807850e-10       2.275465760954e-14      -1.015084431354e-13       0.000000000000e+00       4.139774540277e-11       4.603886319711e-12      -9.351552869702e-15 
   57       2.105953444884e-10       2.402845807958e-14      -1.373783367212e-13       0.000000000000e+00       3.978386760062e-11       4.440542271948e-12      -9.742240284999e-15 
   58       2.135023158187e-10       2.534147021355e-14      -1.750819783619e-13       0.000000000000e+00       3.825734663015e-11       4.286146382596e-12      -1.015495572829e-14 
   59       2.164387899388e-10       2.669372472274e-14      -2.146148763269e-13       0.000000000000e+00       3.681163195117e-11       4.140076931532e-12      -1.054940706072e-14 
   60       2.194019798908e-10       2.808522091573e-14      -2.559691774752e-13       0.000000000000e+00       3.543711670765e-11       4.001402790088e-12      -1.087969661344e-14 
   61       2.223889958513e-10       2.951582435572e-14      -2.991345752336e-13       0.000000000000e+00       3.412380685016e-11       3.869140029419e-12      -1.110483854751e-14 
   62       2.254012212891e-10       3.098493350046e-14      -3.441014257060e-13       0.000000000000e+00       3.287040873064e-11       3.743127825694e-12      -1.122360200499e-14 
   63       2.284407644424e-10       3.249173749388e-14      -3.908582133850e-13       0.000000000000e+00       3.167699242967e-11       3.623319642905e-12      -1.124710684640e-14 
   64       2.315091307623e-10       3.403530828191e-14      -4.393906004405e-13       0.000000000000e+00       3.054225813953e-11       3.509518549068e-12      -1.118886481309e-14 
   65       2.346071766842e-10       3.561459714605e-14      -4.896813896107e-13       0.000000000000e+00       2.946345815653e-11       3.401368763236e-12      -1.106488535757e-14 
   66       2.377350633969e-10       3.722843123698e-14      -5.417104870929e-13       0.000000000000e+00       2.843631887326e-11       3.298347202503e-12      -1.089378147392e-14 
   67       2.408922106141e-10       3.887551010810e-14      -5.954548654348e-13       0.000000000000e+00       2.745496277092e-11       3.199755029012e-12      -1.069687552822e-14 
   68       2.440778926115e-10       4.055454191000e-14      -6.508901663406e-13       0.000000000000e+00       2.651347883260e-11       3.104901045950e-12      -1.049412693358e-14 
   69       2.472932699217e-10       4.226469176791e-14      -7.079959691714e-13       0.000000000000e+00       2.561117766251e-11       3.013713932440e-12      -1.029072041934e-14 
   70       2.505396881569e-10       4.400521844749e-14      -7.667515282225e-13       0.000000000000e+00       2.474826594829e-11       2.926239448220e-12      -1.008793782423e-14 
   71       2.538180428975e-10       4.577534283630e-14      -8.271342320085e-13       0.000000000000e+00       2.392425704940e-11       2.842456078198e-12      -9.887094792982e-15 
   72       2.571287498883e-10       4.757424804919e-14      -8.891196080964e-13       0.000000000000e+00       2.313793514849e-11       2.762271486079e-12      -9.689539748517e-15 
   73       2.604717152360e-10       4.940107953382e-14      -9.526813279374e-13       0.000000000000e+00       2.238731940278e-11       2.685518967999e-12      -9.496652864143e-15 
   74       2.638463056050e-10       5.125494517612e-14      -1.017791211700e-12       0.000000000000e+00       2.166962809547e-11       2.611953906158e-12      -9.309845035760e-15 
   75       2.672513184147e-10       5.313491540579e-14      -1.084419233103e-12       0.000000000000e+00       2.098124278712e-11       2.541250222448e-12      -9.130556854069e-15 
   76       2.706855738452e-10       5.503996401098e-14      -1.152533154790e-12       0.000000000000e+00       2.031860682398e-11       2.473083638364e-12      -8.960160131941e-15 
   77       2.741498813703e-10       5.696877788925e-14      -1.222097347022e-12       0.000000000000e+00       1.968118926685e-11       2.407406822457e-12      -8.799644027441e-15 
   78       2.776453793509e-10       5.891991263428e-14      -1.293073761345e-12       0.000000000000e+00       1.906899883038e-11       2.344218207421e-12      -8.649869550604e-15 
   79       2.811729282620e-10       6.089184765644e-14      -1.365422278241e-12       0.000000000000e+00       1.848168105592e-11       2.283477897233e-12      -8.511658953508e-15 
   80       2.847330936406e-10       6.288298507252e-14      -1.439100704379e-12       0.000000000000e+00       1.791850162274e-11       2.225105900816e-12      -8.385792704300e-15 
   81       2.883261290322e-10       6.489164859536e-14      -1.514064769877e-12       0.000000000000e+00       1.737832965909e-11       2.168980365707e-12      -8.273006461203e-15 
   82       2.919519589390e-10       6.691608242353e-14      -1.590268125553e-12       0.000000000000e+00       1.685962105337e-11       2.114935811715e-12      -8.173988046544e-15 
   83       2.956101617670e-10       6.895445013099e-14      -1.667662340187e-12       0.000000000000e+00       1.636040176527e-11       2.062761364594e-12      -8.089374420763e-15 
   84       2.993002509517e-10       7.100490200096e-14      -1.746197433435e-12       0.000000000000e+00       1.587874772090e-11       2.012253217150e-12      -8.019391054093e-15 
   85       3.030226092359e-10       7.306579228496e-14      -1.825823582107e-12       0.000000000000e+00       1.541435246341e-11       1.963385874282e-12      -7.962707978812e-15 
   86       3.067776787307e-10       7.513549609242e-14      -1.906489693042e-12       0.000000000000e+00       1.496718999571e-11       1.916166190251e-12      -7.917387664957e-15 
   87       3.105656646440e-10       7.721234418825e-14      -1.988142898758e-12       0.000000000000e+00       1.453703308322e-11       1.870580822968e-12      -7.881216858380e-15 
   88       3.143865232392e-10       7.929462303282e-14      -2.070728563718e-12       0.000000000000e+00       1.412344491086e-11       1.826595379049e-12      -7.851697544648e-15 
   89       3.182399497944e-10       8.138057482195e-14      -2.154190290582e-12       0.000000000000e+00       1.372577074018e-11       1.784153558861e-12      -7.826037912930e-15 
   90       3.221253665606e-10       8.346839752691e-14      -2.238469926473e-12       0.000000000000e+00       1.334312956644e-11       1.743176301572e-12      -7.801143319899e-15 
   91       3.260419107211e-10       8.555624493439e-14      -2.323507569232e-12       0.000000000000e+00       1.297440577571e-11       1.703560930208e-12      -7.773607253617e-15 
   92       3.299884223497e-10       8.764222668652e-14      -2.409241573676e-12       0.000000000000e+00       1.261824080194e-11       1.665180296696e-12      -7.739702297437e-15 
   93       3.339637972260e-10       8.972443629033e-14      -2.495609392409e-12       0.000000000000e+00       1.227335553148e-11       1.627914801379e-12      -7.696235408628e-15 
   94       3.379681321328e-10       9.180103987824e-14      -2.582550229285e-12       0.000000000000e+00       1.193959110533e-11       1.591755817283e-12      -7.643280525779e-15 
   95       3.420017303502e-10       9.387020093320e-14      -2.670002798454e-12       0.000000000000e+00       1.161700995679e-11       1.556716312528e-12      -7.581842151220e-15 
   96       3.460647452084e-10       9.593005392693e-14      -2.757904542850e-12       0.000000000000e+00       1.130557525991e-11       1.522798963571e-12      -7.513030446103e-15 
   97       3.501571730551e-10       9.797870474384e-14      -2.846191651911e-12       0.000000000000e+00       1.100514712670e-11       1.489995751520e-12      -7.438064058601e-15 
   98       3.542788462226e-10       1.000142311050e-13      -2.934799079289e-12       0.000000000000e+00       1.071547880431e-11       1.458287558445e-12      -7.358272952110e-15 
   99       3.584294259947e-10       1.020346829918e-13      -3.023660560567e-12       0.000000000000e+00       1.043621287228e-11       1.427643763692e-12      -7.275101233445e-15 
  100       3.626083955742e-10       1.040380830705e-13      -3.112708630975e-12       0.000000000000e+00       1.016687743969e-11       1.398021840194e-12      -7.190109981047e-15 
  101       3.668150530494e-10       1.060224271153e-13      -3.201874643103e-12       0.000000000000e+00       9.906882342399e-12       1.369366950785e-12      -7.104980073181e-15 
  102       3.710485043620e-10       1.079856844330e-13      -3.291088784615e-12       0.000000000000e+00       9.655515340219e-12       1.341611544514e-12      -7.021515016135e-15 
  103       3.753076562732e-10       1.099257982865e-13      -3.380280095969e-12       0.000000000000e+00       9.411938314143e-12       1.314674952953e-12      -6.941643772421e-15 
  104       3.795914467382e-10       1.118407373160e-13      -3.469377048007e-12       0.000000000000e+00       9.175377288052e-12       1.288481850518e-12      -6.867006924201e-15 
  105       3.838995866155e-10       1.137286568000e-13      -3.558309325452e-12       0.000000000000e+00       8.945729918623e-12       1.263021344940e-12      -6.797645404868e-15 
  106       3.882319055066e-10       1.155877600701e-13      -3.647006318484e-12       0.000000000000e+00       8.723033360978e-12       1.238295153624e-12      -6.733139082182e-15 
  107       3.925881189260e-10       1.174162504314e-13      -3.735396607953e-12       0.000000000000e+00       8.507276119606e-12       1.214299258429e-12      -6.673005875881e-15 
