# dimensionless total lensed [l(l+1)/2pi] C_l's
# for l=2 to 2500, i.e. number of multipoles equal to 2499
#
# -> if you prefer output in CAMB/HealPix/LensPix units/order, set 'format' to 'camb' in input file
# -> if you don't want to see such a header, set 'headers' to 'no' in input file
# -> for CMB lensing (phi), these are C_l^phi-phi for the lensing potential.
#    Remember the conversion factors:
#    C_l^dd (deflection) = l(l+1) C_l^phi-phi
#    C_l^gg (shear/convergence) = 1/4 (l(l+1))^2 C_l^phi-phi
#
# 1:l     2:TT                     3:EE                     4:TE                     5:BB                     6:phiphi                 7:TPhi                   8:Ephi               
    2       1.381933486431e-10       4.177325771346e-15       3.515564329098e-13       2.309885277736e-19       8.133080236960e-09       4.536420035075e-10      -1.843369752860e-12 
    3       1.306810968538e-10       5.354786601172e-15       3.955509794965e-13       4.620719902285e-19       5.066262599378e-09       3.221388314897e-10      -1.394802407603e-12 
    4       1.236114357422e-10       4.629466688625e-15       3.698429378609e-13       7.703290505638e-19       3.532559986600e-09       2.439242750128e-10      -9.125652456386e-13 
    5       1.183199682279e-10       3.087289404142e-15       3.149197810515e-13       1.155881057781e-18       2.639170679890e-09       1.926599723592e-10      -5.068849221350e-13 
    6       1.146915061299e-10       1.726246247508e-15       2.535960283471e-13       1.618875324051e-18       2.061124091519e-09       1.567338748872e-10      -2.080817390503e-13 
    7       1.123268320385e-10       9.337581797646e-16       1.990889556858e-13       2.159482404739e-18       1.662022285762e-09       1.303694251174e-10      -1.763643772566e-14 
    8       1.109474183887e-10       6.039013627215e-16       1.571718478223e-13       2.777893021401e-18       1.373774184314e-09       1.104009829656e-10       7.941242797021e-14 
    9       1.103038232846e-10       4.859180964054e-16       1.291191571475e-13       3.474314718567e-18       1.157685729470e-09       9.492688749754e-11       1.064230283673e-13 
   10       1.101662790890e-10       4.150140630418e-16       1.136050220758e-13       4.248968351545e-18       9.903851163872e-10       8.267415146351e-11       8.927552108816e-14 
   11       1.104744819609e-10       3.497603646698e-16       1.079452664962e-13       5.102084505511e-18       8.334063705307e-10       7.301613636527e-11       5.207151858100e-14 
   12       1.110780573844e-10       3.058088021455e-16       1.091060371524e-13       6.033899945685e-18       7.283710550991e-10       6.456885197226e-11       1.235525942170e-14 
   13       1.119265195915e-10       2.941484033555e-16       1.143981569107e-13       7.044654194543e-18       6.421270369121e-10       5.770499697708e-11      -1.792986967537e-14 
   14       1.129715086301e-10       3.067936662350e-16       1.217915088009e-13       8.134586324828e-18       5.703578217231e-10       5.172281740256e-11      -3.453351806841e-14 
   15       1.142010838521e-10       3.320480031601e-16       1.299696392216e-13       9.303932047070e-18       5.099344273519e-10       4.668924069007e-11      -3.760503732804e-14 
   16       1.155393826446e-10       3.674109541316e-16       1.383536396304e-13       1.055292115763e-17       4.585505262560e-10       4.234976824668e-11      -3.103886456276e-14 
   17       1.170140316560e-10       4.182410292839e-16       1.467093569818e-13       1.188177539857e-17       4.144637753304e-10       3.856334142892e-11      -2.001221378845e-14 
   18       1.185621494142e-10       4.900937037622e-16       1.552019192650e-13       1.329070658581e-17       3.761916408805e-10       3.526214055898e-11      -9.457769330418e-15 
   19       1.201949066947e-10       5.833360213117e-16       1.640662437602e-13       1.477991627434e-17       3.431308316131e-10       3.239930190616e-11      -2.027207351418e-15 
   20       1.219048635504e-10       6.959490822037e-16       1.734990675893e-13       1.634959301149e-17       3.140074417823e-10       2.985964181035e-11       5.266478795147e-16 
   21       1.236935821032e-10       8.273134504519e-16       1.834746190272e-13       1.799991479603e-17       2.883654572438e-10       2.759609068394e-11      -1.213263346963e-15 
   22       1.255351123524e-10       9.769448015523e-16       1.938070363995e-13       1.973104606760e-17       2.655933447419e-10       2.555042191924e-11      -5.457959122524e-15 
   23       1.274340562259e-10       1.144880271084e-15       2.041231108897e-13       2.154314158322e-17       2.453790676622e-10       2.371349877213e-11      -1.043352940692e-14 
   24       1.293837435724e-10       1.331208046473e-15       2.139571609805e-13       2.343634335414e-17       2.272562193571e-10       2.206873466783e-11      -1.426172415240e-14 
   25       1.313865071424e-10       1.536368794540e-15       2.230650753865e-13       2.541078618485e-17       2.110123107631e-10       2.059636341925e-11      -1.613729312724e-14 
   26       1.334316080063e-10       1.761049242494e-15       2.312693281511e-13       2.746659397967e-17       1.963540177543e-10       1.926118533245e-11      -1.576665148175e-14 
   27       1.355136937909e-10       2.006864038856e-15       2.384474077809e-13       2.960388506254e-17       1.831059626628e-10       1.804607146094e-11      -1.377859757912e-14 
   28       1.376204950567e-10       2.275755684864e-15       2.445222034870e-13       3.182276965370e-17       1.710402020896e-10       1.693192624315e-11      -1.117974500567e-14 
   29       1.397612388979e-10       2.569251869530e-15       2.495394864291e-13       3.412335853122e-17       1.600954519774e-10       1.591684633927e-11      -8.618205071809e-15 
   30       1.419406866415e-10       2.888801021198e-15       2.536188303575e-13       3.650575581299e-17       1.501545513526e-10       1.499521862801e-11      -6.744221544438e-15 
   31       1.441531229188e-10       3.235782568465e-15       2.568880137518e-13       3.897005892784e-17       1.410151567632e-10       1.415269570678e-11      -6.156788328453e-15 
   32       1.464014983041e-10       3.611050170211e-15       2.593192392409e-13       4.151636951547e-17       1.326302711879e-10       1.338065924669e-11      -6.676291205102e-15 
   33       1.486827779286e-10       4.015201163502e-15       2.608314728516e-13       4.414478640785e-17       1.249407575996e-10       1.266542009231e-11      -7.786365261829e-15 
   34       1.509870361670e-10       4.448801562873e-15       2.613253458203e-13       4.685540431321e-17       1.178392017183e-10       1.198991909684e-11      -8.911203686238e-15 
   35       1.533165234732e-10       4.912801856728e-15       2.606616041769e-13       4.964831917170e-17       1.112893902481e-10       1.135585463006e-11      -9.770320930509e-15 
   36       1.556715389794e-10       5.408260401530e-15       2.586723527601e-13       5.252362479436e-17       1.052389192272e-10       1.076853347077e-11      -1.013942186694e-14 
   37       1.580481063503e-10       5.936171092793e-15       2.552000811242e-13       5.548141102556e-17       9.960921074455e-11       1.023032503459e-11      -9.837448134011e-15 
   38       1.604502385590e-10       6.497250116197e-15       2.502182186315e-13       5.852176190289e-17       9.438581238030e-11       9.739184180167e-12      -9.011127069757e-15 
   39       1.628805789868e-10       7.092071737838e-15       2.437507020741e-13       6.164475702317e-17       8.955223634725e-11       9.289112937503e-12      -7.948085020211e-15 
   40       1.653363897872e-10       7.721117781505e-15       2.358412449667e-13       6.485047211565e-17       8.506248929373e-11       8.870142765317e-12      -7.006540741851e-15 
   41       1.678123586306e-10       8.384857306947e-15       2.265355319563e-13       6.813897618775e-17       8.085711485876e-11       8.471396889878e-12      -6.522140003102e-15 
   42       1.703114865219e-10       9.084031103184e-15       2.158179365546e-13       7.151032169668e-17       7.692379081211e-11       8.092251538166e-12      -6.481016809971e-15 
   43       1.728367860173e-10       9.819449820747e-15       2.036562294059e-13       7.496455128208e-17       7.325212529223e-11       7.734265248568e-12      -6.747981204996e-15 
   44       1.753878799163e-10       1.059191630663e-14       1.900187088624e-13       7.850170026944e-17       6.981547156802e-11       7.398019464412e-12      -7.152943619601e-15 
   45       1.779625654383e-10       1.140216340614e-14       1.748728070551e-13       8.212179293358e-17       6.658045780309e-11       7.083252927157e-12      -7.527999222692e-15 
   46       1.805628602892e-10       1.225064534394e-14       1.581806609650e-13       8.582483028975e-17       6.354202377705e-11       6.789524297899e-12      -7.836996445653e-15 
   47       1.831901896147e-10       1.313768386627e-14       1.399020369605e-13       8.961079841224e-17       6.069665711663e-11       6.515594941010e-12      -8.081026741962e-15 
   48       1.858434187138e-10       1.406352141374e-14       1.199953282720e-13       9.347967137344e-17       5.803182508435e-11       6.259147104599e-12      -8.262636867337e-15 
   49       1.885186248283e-10       1.502831747954e-14       9.841737481541e-14       9.743141089559e-17       5.552530365249e-11       6.016707065699e-12      -8.385927144666e-15 
   50       1.912112900615e-10       1.603216925739e-14       7.512679091326e-14       1.014659659337e-16       5.315187607855e-11       5.784639926002e-12      -8.459250158160e-15 
   51       1.939241113160e-10       1.707518864193e-14       5.009543133868e-14       1.055832720992e-16       5.090712872442e-11       5.562630636890e-12      -8.503942443348e-15 
   52       1.966609157989e-10       1.815743983414e-14       2.329972615363e-14       1.097832514781e-16       4.878895460648e-11       5.351015011044e-12      -8.548132772570e-15 
   53       1.994243136119e-10       1.927891443871e-14      -5.282569909678e-15       1.140658123419e-16       4.679043198817e-11       5.149764858196e-12      -8.624564279491e-15 
   54       2.022155834761e-10       2.043952896530e-14      -3.567239254758e-14       1.184308487971e-16       4.489950025391e-11       4.958461560932e-12      -8.770815097164e-15 
   55       2.050351901198e-10       2.163918060063e-14      -6.788724671732e-14       1.228782486710e-16       4.310264228933e-11       4.776507976245e-12      -9.017815436023e-15 
   56       2.078847487513e-10       2.287793647404e-14      -1.019341914770e-13       1.274079202720e-16       4.139774540277e-11       4.603886319711e-12      -9.351552869702e-15 
   57       2.107653484417e-10       2.415588703271e-14      -1.378151388760e-13       1.320197716616e-16       3.978386760062e-11       4.440542271948e-12      -9.742240284999e-15 
   58       2.136768755053e-10       2.547309166670e-14      -1.755287708861e-13       1.367137029686e-16       3.825734663015e-11       4.286146382596e-12      -1.015495572829e-14 
   59       2.166179238353e-10       2.682957848048e-14      -2.150704712687e-13       1.414896063583e-16       3.681163195117e-11       4.140076931532e-12      -1.054940706072e-14 
   60       2.195857052386e-10       2.822534406436e-14      -2.564322574430e-13       1.463473660026e-16       3.543711670765e-11       4.001402790088e-12      -1.087969661344e-14 
   61       2.225773283217e-10       2.966025125509e-14      -2.996036907357e-13       1.512868734452e-16       3.412380685016e-11       3.869140029419e-12      -1.110483854751e-14 
   62       2.255941734422e-10       3.113369611728e-14      -3.445750000208e-13       1.563080778008e-16       3.287040873064e-11       3.743127825694e-12      -1.122360200499e-14 
   63       2.286383451193e-10       3.264486546673e-14      -3.913345415029e-13       1.614109468207e-16       3.167699242967e-11       3.623319642905e-12      -1.124710684640e-14 
   64       2.317113448118e-10       3.419282888882e-14      -4.398678458504e-13       1.665954529396e-16       3.054225813953e-11       3.509518549068e-12      -1.118886481309e-14 
   65       2.348140246758e-10       3.577653527327e-14      -4.901575811061e-13       1.718615737333e-16       2.946345815653e-11       3.401368763236e-12      -1.106488535757e-14 
   66       2.379465413235e-10       3.739480934894e-14      -5.421835155984e-13       1.772092923765e-16       2.843631887326e-11       3.298347202503e-12      -1.089378147392e-14 
   67       2.411083095814e-10       3.904634821861e-14      -5.959224808524e-13       1.826385981010e-16       2.745496277092e-11       3.199755029012e-12      -1.069687552822e-14 
   68       2.442985986396e-10       4.072985769373e-14      -6.513499747339e-13       1.881494949569e-16       2.651347883260e-11       3.104901045950e-12      -1.049412693358e-14 
   69       2.475185641346e-10       4.244450112310e-14      -7.084454309984e-13       1.937420291332e-16       2.561117766251e-11       3.013713932440e-12      -1.029072041934e-14 
   70       2.507695466413e-10       4.418953570153e-14      -7.671879557690e-13       1.994162680208e-16       2.474826594829e-11       2.926239448220e-12      -1.008793782423e-14 
   71       2.540524364358e-10       4.596418082480e-14      -8.275547865508e-13       2.051722930581e-16       2.392425704940e-11       2.842456078198e-12      -9.887094792982e-15 
   72       2.573676436833e-10       4.776761819991e-14      -8.895212970917e-13       2.110102004005e-16       2.313793514849e-11       2.762271486079e-12      -9.689539748517e-15 
   73       2.607150686257e-10       4.959899195533e-14      -9.530610022430e-13       2.169301015915e-16       2.238731940278e-11       2.685518967999e-12      -9.496652864143e-15 
   74       2.640940717691e-10       5.145740875121e-14      -1.018145562820e-12       2.229321242321e-16       2.166962809547e-11       2.611953906158e-12      -9.309845035760e-15 
   75       2.675034440723e-10       5.334193788961e-14      -1.084744790462e-12       2.290164126519e-16       2.098124278712e-11       2.541250222448e-12      -9.130556854069e-15 
   76       2.709419995449e-10       5.525155213819e-14      -1.152826283684e-12       2.351831215643e-16       2.031860682398e-11       2.473083638364e-12      -8.960160131941e-15 
   77       2.744105437045e-10       5.718493749949e-14      -1.222354248647e-12       2.414323942178e-16       1.968118926685e-11       2.407406822457e-12      -8.799644027441e-15 
   78       2.779102115823e-10       5.914064879123e-14      -1.293290471186e-12       2.477643814594e-16       1.906899883038e-11       2.344218207421e-12      -8.649869550604e-15 
   79       2.814418603829e-10       6.111716476785e-14      -1.365594663876e-12       2.541792489144e-16       1.848168105592e-11       2.283477897233e-12      -8.511658953508e-15 
   80       2.850060524350e-10       6.311288701497e-14      -1.439224463339e-12       2.606771775124e-16       1.791850162274e-11       2.225105900816e-12      -8.385792704300e-15 
   81       2.886030381424e-10       6.512613884396e-14      -1.514135427537e-12       2.672583640136e-16       1.737832965909e-11       2.168980365707e-12      -8.273006461203e-15 
   82       2.922327389348e-10       6.715516418642e-14      -1.590281033069e-12       2.739230215357e-16       1.685962105337e-11       2.114935811715e-12      -8.173988046544e-15 
   83       2.958947302182e-10       6.919812648867e-14      -1.667612672476e-12       2.806713800801e-16       1.636040176527e-11       2.062761364594e-12      -8.089374420763e-15 
   84       2.995885224605e-10       7.125317598229e-14      -1.746080192293e-12       2.875036833501e-16       1.587874772090e-11       2.012253217150e-12      -8.019391054093e-15 
   85       3.033144953314e-10       7.331866673054e-14      -1.825633615651e-12       2.944201774466e-16       1.541435246341e-11       1.963385874282e-12      -7.962707978812e-15 
   86       3.070730878845e-10       7.539297370407e-14      -1.906221701623e-12       3.014211212549e-16       1.496718999571e-11       1.916166190251e-12      -7.917387664957e-15 
   87       3.108645023300e-10       7.747442764715e-14      -1.987791436142e-12       3.085067904437e-16       1.453703308322e-11       1.870580822968e-12      -7.881216858380e-15 
   88       3.146886919968e-10       7.956131512135e-14      -2.070288038389e-12       3.156774779290e-16       1.412344491086e-11       1.826595379049e-12      -7.851697544648e-15 
   89       3.185453492939e-10       8.165187854926e-14      -2.153654967177e-12       3.229334943385e-16       1.372577074018e-11       1.784153558861e-12      -7.826037912930e-15 
   90       3.224338936714e-10       8.374431625814e-14      -2.237833927341e-12       3.302751684757e-16       1.334312956644e-11       1.743176301572e-12      -7.801143319899e-15 
   91       3.263534595825e-10       8.583678252363e-14      -2.322764876119e-12       3.377028477840e-16       1.297440577571e-11       1.703560930208e-12      -7.773607253617e-15 
   92       3.303028844445e-10       8.792738761344e-14      -2.408386029546e-12       3.452168988105e-16       1.261824080194e-11       1.665180296696e-12      -7.739702297437e-15 
   93       3.342810608421e-10       9.001422605413e-14      -2.494634708065e-12       3.528177151490e-16       1.227335553148e-11       1.627914801379e-12      -7.696235408628e-15 
   94       3.382880798788e-10       9.209546619977e-14      -2.581450005002e-12       3.605057416256e-16       1.193959110533e-11       1.591755817283e-12      -7.643280525779e-15 
   95       3.423242383277e-10       9.416927427789e-14      -2.668770533106e-12       3.682814546251e-16       1.161700995679e-11       1.556716312528e-12      -7.581842151220e-15 
   96       3.463896827675e-10       9.623378779197e-14      -2.756533638748e-12       3.761453554967e-16       1.130557525991e-11       1.522798963571e-12      -7.513030446103e-15 
   97       3.504844025435e-10       9.828711595257e-14      -2.844675419821e-12       3.840979711203e-16       1.100514712670e-11       1.489995751520e-12      -7.438064058601e-15 
   98       3.546082227298e-10       1.003273401084e-13      -2.933130743650e-12       3.921398544732e-16       1.071547880431e-11       1.458287558445e-12      -7.358272952110e-15 
   99       3.587607970898e-10       1.023525141774e-13      -3.021833264898e-12       4.002715851974e-16       1.043621287228e-11       1.427643763692e-12      -7.275101233445e-15 
  100       3.629416010377e-10       1.043606650780e-13      -3.110715443473e-12       4.084937701658e-16       1.016687743969e-11       1.398021840194e-12      -7.190109981047e-15 
  101       3.671499246002e-10       1.063497931599e-13      -3.199708562432e-12       4.168070440495e-16       9.906882342399e-12       1.369366950785e-12      -7.104980073181e-15 
  102       3.713848653777e-10       1.083178726356e-13      -3.288742745890e-12       4.252120698843e-16       9.655515340219e-12       1.341611544514e-12      -7.021515016135e-15 
  103       3.756453215051e-10       1.102628520111e-13      -3.377746976925e-12       4.337095396373e-16       9.411938314143e-12       1.314674952953e-12      -6.941643772421e-15 
  104       3.799302228149e-10       1.121827055837e-13      -3.466649674124e-12       4.423001550684e-16       9.175377288052e-12       1.288481850518e-12      -6.867006924201e-15 
  105       3.842392750465e-10       1.140755949287e-13      -3.555380471352e-12       4.509845661465e-16       8.945729918623e-12       1.263021344940e-12      -6.797645404868e-15 
  106       3.885723035146e-10       1.159397301327e-13      -3.643868712902e-12       4.597634253324e-16       8.723033360978e-12       1.238295153624e-12      -6.733139082182e-15 
  107       3.929290195173e-10       1.177733216549e-13      -3.732042940089e-12       4.686374068869e-16       8.507276119606e-12       1.214299258429e-12      -6.673005875881e-15 
