# Matter power spectrum P(k) at redshift z=0
# for k=9.99427e-06 to 4.14551 h/Mpc,
# number of wavenumbers equal to 613
#    1:k (h/Mpc)              2:P (Mpc/h)^3        
       9.994266526544e-06       5.436154225686e+01 
       2.231706605539e-05       1.181213578108e+02 
       3.467952712444e-05       1.808242416049e+02 
       4.711208579580e-05       2.431006387930e+02 
       5.964563914926e-05       3.053079890838e+02 
       7.231179750599e-05       3.677131102175e+02 
       8.514314406060e-05       4.305432174786e+02 
       9.817350510305e-05       4.940067367364e+02 
       1.114382340378e-04       5.583038712873e+02 
       1.249745124362e-04       6.236329444193e+02 
       1.388216713744e-04       6.901947195838e+02 
       1.530215362894e-04       7.581956841661e+02 
       1.676187984984e-04       8.278508670210e+02 
       1.826614163317e-04       8.993862746927e+02 
       1.982010484685e-04       9.730412247069e+02 
       2.142935214638e-04       1.049070756574e+03 
       2.309993325181e-04       1.127747817021e+03 
       2.483841871421e-04       1.209365564334e+03 
       2.665195693478e-04       1.294239910370e+03 
       2.854833391719e-04       1.382711565035e+03 
       3.053603484602e-04       1.475148459198e+03 
       3.262430606825e-04       1.571947943801e+03 
       3.482321538181e-04       1.673538564358e+03 
       3.714370768278e-04       1.780381670261e+03 
       3.959765197565e-04       1.892972438847e+03 
       4.219787451380e-04       2.011839635657e+03 
       4.495817144764e-04       2.137545226449e+03 
       4.789329290730e-04       2.270681205066e+03 
       5.101888910197e-04       2.411865553926e+03 
       5.435140804429e-04       2.561735262935e+03 
       5.790793428027e-04       2.720937077169e+03 
       6.170595899992e-04       2.890114534518e+03 
       6.576307464478e-04       3.069892398211e+03 
       7.009659207547e-04       3.260857672969e+03 
       7.472308573439e-04       3.463537595300e+03 
       7.965788178177e-04       3.678376472248e+03 
       8.491451496707e-04       3.905711379228e+03 
       9.050419032324e-04       4.145749962119e+03 
       9.643529333887e-04       4.398550017682e+03 
       1.027129946585e-03       4.664007521670e+03 
       1.093389908105e-03       4.941848507973e+03 
       1.163114106101e-03       5.231631345415e+03 
       1.236248992468e-03       5.532757670404e+03 
       1.312708718386e-03       5.844488316715e+03 
       1.381837331894e-03       6.123613364818e+03 
       1.392379094468e-03       6.165954138934e+03 
       1.475122568367e-03       6.496236303638e+03 
       1.560783748221e-03       6.834338984252e+03 
       1.649195010731e-03       7.179237387540e+03 
       1.740181803266e-03       7.529903413514e+03 
       1.833567355522e-03       7.885327517301e+03 
       1.929176632176e-03       8.244536899639e+03 
       2.026839463385e-03       8.606608251390e+03 
       2.126392872543e-03       8.970677599510e+03 
       2.227682676653e-03       9.335945547273e+03 
       2.330564465436e-03       9.701680017356e+03 
       2.434904076243e-03       1.006721537826e+04 
       2.540577678703e-03       1.043195019078e+04 
       2.647471571521e-03       1.079534781815e+04 
       2.755481778301e-03       1.115692710780e+04 
       2.864513512735e-03       1.151626222359e+04 
       2.974480567900e-03       1.187297694393e+04 
       3.085304670724e-03       1.222674008981e+04 
       3.196914831296e-03       1.257726136353e+04 
       3.309246707569e-03       1.292428776087e+04 
       3.422241998970e-03       1.326759902133e+04 
       3.535847877107e-03       1.360700559477e+04 
       3.650016457917e-03       1.394234412508e+04 
       3.764704316830e-03       1.427347506183e+04 
       3.879872046656e-03       1.460028117628e+04 
       3.995483856642e-03       1.492266254359e+04 
       4.111507210414e-03       1.524053880773e+04 
       4.227912500064e-03       1.555384227401e+04 
       4.344672753458e-03       1.586252031474e+04 
       4.461763371850e-03       1.616653176971e+04 
       4.579161894908e-03       1.646584400552e+04 
       4.696847790466e-03       1.676043738968e+04 
       4.814802266456e-03       1.705029826983e+04 
       4.933008102693e-03       1.733541927489e+04 
       5.051449500395e-03       1.761576665287e+04 
       5.170111947528e-03       1.789138039238e+04 
       5.288982098225e-03       1.816227983908e+04 
       5.408047664765e-03       1.842845342258e+04 
       5.527297320702e-03       1.869001359754e+04 
       5.646720613947e-03       1.894689348951e+04 
       5.766307888675e-03       1.919913291079e+04 
       5.886050215127e-03       1.944675202223e+04 
       6.005939326414e-03       1.968978005755e+04 
       6.125967561582e-03       1.992825232306e+04 
       6.246127814253e-03       2.016220206392e+04 
       6.366413486255e-03       2.039166986923e+04 
       6.486818445690e-03       2.061669049134e+04 
       6.607336988999e-03       2.083731054754e+04 
       6.727963806579e-03       2.105355950342e+04 
       6.848693951601e-03       2.126547781888e+04 
       6.969522811694e-03       2.147311878113e+04 
       7.090446083203e-03       2.167650787100e+04 
       7.211459747755e-03       2.187570966055e+04 
       7.332560050922e-03       2.207074306127e+04 
       7.453743482744e-03       2.226166167227e+04 
       7.575006759960e-03       2.244846804950e+04 
       7.696346809762e-03       2.263128193328e+04 
       7.817760754925e-03       2.281012999870e+04 
       7.939245900203e-03       2.298499326259e+04 
       8.060799719843e-03       2.315597011975e+04 
       8.182419846140e-03       2.332308184547e+04 
       8.304104058917e-03       2.348637310679e+04 
       8.425850275857e-03       2.364589774989e+04 
       8.547656543607e-03       2.380167505477e+04 
       8.669521029587e-03       2.395377530294e+04 
       8.791442014441e-03       2.410220211837e+04 
       8.913417885066e-03       2.424704457796e+04 
       9.035447128187e-03       2.438829307964e+04 
       9.157528324417e-03       2.452603688334e+04 
       9.279660142760e-03       2.466025249763e+04 
       9.401841335534e-03       2.479103588593e+04 
       9.524070733667e-03       2.491843073708e+04 
       9.646347242333e-03       2.504245733581e+04 
       9.768669836920e-03       2.516316180441e+04 
       9.891037559275e-03       2.528056522593e+04 
       1.001344951423e-02       2.539477031706e+04 
       1.013590486637e-02       2.550567615480e+04 
       1.025840283705e-02       2.561342919585e+04 
       1.038094270157e-02       2.571808289012e+04 
       1.050352378661e-02       2.581969946677e+04 
       1.062614546784e-02       2.591818094206e+04 
       1.074880716762e-02       2.601355267622e+04 
       1.087150835296e-02       2.610601110308e+04 
       1.099424853355e-02       2.619552340974e+04 
       1.111702725998e-02       2.628211880194e+04 
       1.123984412203e-02       2.636590243226e+04 
       1.136269874711e-02       2.644667775936e+04 
       1.148559079879e-02       2.652472360407e+04 
       1.160851997546e-02       2.659999163633e+04 
       1.173148600907e-02       2.667253221449e+04 
       1.185448866391e-02       2.674231826490e+04 
       1.197752773556e-02       2.680952475124e+04 
       1.210060304985e-02       2.687393855247e+04 
       1.222371446193e-02       2.693588773166e+04 
       1.234686185535e-02       2.699510341018e+04 
       1.247004514130e-02       2.705193887894e+04 
       1.259326425781e-02       2.710608228000e+04 
       1.271651916908e-02       2.715783306297e+04 
       1.283980986481e-02       2.720711723798e+04 
       1.296313635962e-02       2.725399869312e+04 
       1.308649869248e-02       2.729845828861e+04 
       1.320989692622e-02       2.734054237830e+04 
       1.333333114707e-02       2.738035938674e+04 
       1.345680146420e-02       2.741782103883e+04 
       1.358030800940e-02       2.745311183316e+04 
       1.370385093666e-02       2.748598113835e+04 
       1.381837331894e-02       2.751456004157e+04 
       1.382743042188e-02       2.751681116830e+04 
       1.395104666260e-02       2.754536832304e+04 
       1.407469987773e-02       2.757167001669e+04 
       1.419839030733e-02       2.759603629620e+04 
       1.432211821242e-02       2.761820931176e+04 
       1.444588387479e-02       2.763822251416e+04 
       1.456968759690e-02       2.765625186510e+04 
       1.469352970172e-02       2.767229577590e+04 
       1.481741053265e-02       2.768632897499e+04 
       1.494133045346e-02       2.769848253803e+04 
       1.506528984823e-02       2.770849911978e+04 
       1.518928912135e-02       2.771675654139e+04 
       1.531332869746e-02       2.772309081079e+04 
       1.543740902153e-02       2.772764284571e+04 
       1.556153055885e-02       2.773027462851e+04 
       1.568569379510e-02       2.773101691374e+04 
       1.580989923642e-02       2.773005349657e+04 
       1.593414740953e-02       2.772734568915e+04 
       1.605843886177e-02       2.772289120810e+04 
       1.618277416132e-02       2.771674929257e+04 
       1.630715389727e-02       2.770890271269e+04 
       1.643157867980e-02       2.769938552492e+04 
       1.655604914041e-02       2.768823904296e+04 
       1.668056593204e-02       2.767557790480e+04 
       1.680512972934e-02       2.766114787488e+04 
       1.692974122887e-02       2.764526550794e+04 
       1.705440114936e-02       2.762780599557e+04 
       1.717911023196e-02       2.760882270214e+04 
       1.730386924054e-02       2.758836677085e+04 
       1.742867896196e-02       2.756645578294e+04 
       1.755354020640e-02       2.754305871942e+04 
       1.767845380768e-02       2.751824394501e+04 
       1.780342062360e-02       2.749208843177e+04 
       1.792844153633e-02       2.746440299469e+04 
       1.805351745273e-02       2.743544095192e+04 
       1.817864930481e-02       2.740512409619e+04 
       1.830383805010e-02       2.737347578522e+04 
       1.842908467207e-02       2.734057402565e+04 
       1.855439018064e-02       2.730633350420e+04 
       1.867975561256e-02       2.727090896623e+04 
       1.880518203194e-02       2.723421327139e+04 
       1.893067053076e-02       2.719629595068e+04 
       1.905622222936e-02       2.715719504448e+04 
       1.918183827697e-02       2.711694417251e+04 
       1.930751985230e-02       2.707549871840e+04 
       1.943326816410e-02       2.703295111370e+04 
       1.955908445174e-02       2.698923177962e+04 
       1.968496998586e-02       2.694447607462e+04 
       1.981092606897e-02       2.689863482818e+04 
       1.993695403614e-02       2.685173205779e+04 
       2.006305525565e-02       2.680374869899e+04 
       2.018923112972e-02       2.675486840572e+04 
       2.031548309522e-02       2.670486792058e+04 
       2.044181262441e-02       2.665393733076e+04 
       2.056822122574e-02       2.660202675484e+04 
       2.069471044463e-02       2.654920618944e+04 
       2.082128186429e-02       2.649552001109e+04 
       2.094793710656e-02       2.644074129454e+04 
       2.107467783283e-02       2.638511711696e+04 
       2.120150574489e-02       2.632873588938e+04 
       2.132842258588e-02       2.627146771257e+04 
       2.145543014129e-02       2.621330704435e+04 
       2.158253023988e-02       2.615435282952e+04 
       2.170972475477e-02       2.609458539631e+04 
       2.183701560445e-02       2.603401805259e+04 
       2.196440475389e-02       2.597272965547e+04 
       2.209189421566e-02       2.591060611175e+04 
       2.221948605108e-02       2.584782144868e+04 
       2.234718237143e-02       2.578433668566e+04 
       2.247498533917e-02       2.572005896998e+04 
       2.260289716920e-02       2.565511446166e+04 
       2.273092013022e-02       2.558949075217e+04 
       2.285905654601e-02       2.552326611766e+04 
       2.298730879691e-02       2.545637391293e+04 
       2.311567932118e-02       2.538881621833e+04 
       2.324417061656e-02       2.532066747844e+04 
       2.337278524176e-02       2.525191327435e+04 
       2.350152581806e-02       2.518257960684e+04 
       2.363039503097e-02       2.511268389269e+04 
       2.375939563188e-02       2.504223039736e+04 
       2.388853043984e-02       2.497123069978e+04 
       2.401780234335e-02       2.489972524975e+04 
       2.414721430223e-02       2.482766327375e+04 
       2.427676934957e-02       2.475509963067e+04 
       2.440647059367e-02       2.468206261668e+04 
       2.453632122015e-02       2.460855812809e+04 
       2.466632449404e-02       2.453462364133e+04 
       2.479648376202e-02       2.446019014649e+04 
       2.492680245466e-02       2.438536796659e+04 
       2.505728408881e-02       2.431011704789e+04 
       2.518793227000e-02       2.423437963158e+04 
       2.531875069501e-02       2.415829197092e+04 
       2.544974315443e-02       2.408184144530e+04 
       2.558091353540e-02       2.400502174857e+04 
       2.571226582440e-02       2.392784947739e+04 
       2.584380411013e-02       2.385020019805e+04 
       2.597553258655e-02       2.377236109345e+04 
       2.610745555596e-02       2.369413982614e+04 
       2.623957743226e-02       2.361561793681e+04 
       2.637190274426e-02       2.353685830105e+04 
       2.650443613917e-02       2.345763803249e+04 
       2.663718238621e-02       2.337822349910e+04 
       2.677014638031e-02       2.329856410483e+04 
       2.690333314602e-02       2.321861730554e+04 
       2.703674784152e-02       2.313842605982e+04 
       2.717039576279e-02       2.305793903178e+04 
       2.730428234797e-02       2.297725626472e+04 
       2.743841318183e-02       2.289636574165e+04 
       2.757279400052e-02       2.281522989311e+04 
       2.770743069637e-02       2.273393588084e+04 
       2.784232932301e-02       2.265247353844e+04 
       2.797749610060e-02       2.257073569727e+04 
       2.811293742137e-02       2.248893839049e+04 
       2.824865985525e-02       2.240682145079e+04 
       2.838467015587e-02       2.232461881249e+04 
       2.852097526674e-02       2.224221904528e+04 
       2.865758232769e-02       2.215981269831e+04 
       2.879449868158e-02       2.207714470497e+04 
       2.893173188134e-02       2.199438691851e+04 
       2.906928969726e-02       2.191149849508e+04 
       2.920718012461e-02       2.182850237523e+04 
       2.934541139161e-02       2.174540022024e+04 
       2.948399196773e-02       2.166225797526e+04 
       2.962293057240e-02       2.157897522562e+04 
       2.976223618403e-02       2.149561194621e+04 
       2.990191804953e-02       2.141217008032e+04 
       3.004198569423e-02       2.132858255372e+04 
       3.018244893222e-02       2.124503506553e+04 
       3.032331787721e-02       2.116137147745e+04 
       3.046460295392e-02       2.107767047328e+04 
       3.060631490998e-02       2.099394269258e+04 
       3.074846482837e-02       2.091014000336e+04 
       3.089106414054e-02       2.082638854620e+04 
       3.103412464010e-02       2.074248057633e+04 
       3.117765849722e-02       2.065862693889e+04 
       3.132167827375e-02       2.057471398907e+04 
       3.146619693907e-02       2.049072316565e+04 
       3.161122788679e-02       2.040683961236e+04 
       3.175678495226e-02       2.032300050411e+04 
       3.190288243102e-02       2.023899108931e+04 
       3.204953509820e-02       2.015510911400e+04 
       3.219675822896e-02       2.007117955816e+04 
       3.234456762001e-02       1.998724882423e+04 
       3.249297961231e-02       1.990332941448e+04 
       3.264201111501e-02       1.981946028072e+04 
       3.279167963066e-02       1.973556543417e+04 
       3.294200328190e-02       1.965171974645e+04 
       3.309300083964e-02       1.956788429733e+04 
       3.324469175282e-02       1.948418089533e+04 
       3.339709617989e-02       1.940041488683e+04 
       3.355023502218e-02       1.931662765247e+04 
       3.370412995915e-02       1.923296212227e+04 
       3.385880348587e-02       1.914933920408e+04 
       3.401427895264e-02       1.906572506848e+04 
       3.417058060711e-02       1.898219482621e+04 
       3.432773363903e-02       1.889859103430e+04 
       3.448576422767e-02       1.881509324961e+04 
       3.464469959246e-02       1.873165051371e+04 
       3.480456804668e-02       1.864827851544e+04 
       3.496539905477e-02       1.856488189528e+04 
       3.512722329339e-02       1.848156122775e+04 
       3.529007271651e-02       1.839831068907e+04 
       3.545398062495e-02       1.831509236463e+04 
       3.561898174067e-02       1.823186647337e+04 
       3.578511228622e-02       1.814873850108e+04 
       3.595241006978e-02       1.806562277823e+04 
       3.612091457622e-02       1.798252842467e+04 
       3.629066706487e-02       1.789952716692e+04 
       3.646171067428e-02       1.781651447063e+04 
       3.663409053498e-02       1.773363747985e+04 
       3.680785389053e-02       1.765061235353e+04 
       3.698305022804e-02       1.756775483540e+04 
       3.715973141869e-02       1.748487936709e+04 
       3.733795186940e-02       1.740197623592e+04 
       3.751776868662e-02       1.731918464436e+04 
       3.769924185345e-02       1.723637273438e+04 
       3.788243442139e-02       1.715351263318e+04 
       3.806741271818e-02       1.707061804568e+04 
       3.825424657329e-02       1.698785654781e+04 
       3.844300956310e-02       1.690502627449e+04 
       3.863377927753e-02       1.682219398990e+04 
       3.882663761061e-02       1.673938336854e+04 
       3.902167107754e-02       1.665646744034e+04 
       3.921897116114e-02       1.657355467651e+04 
       3.941863469094e-02       1.649057697812e+04 
       3.962076425876e-02       1.640755532153e+04 
       3.982546867479e-02       1.632452697011e+04 
       4.003286346927e-02       1.624135875585e+04 
       4.024307144494e-02       1.615814005313e+04 
       4.045622328671e-02       1.607477239023e+04 
       4.067245823559e-02       1.599131935639e+04 
       4.089192483508e-02       1.590782280687e+04 
       4.111478175950e-02       1.582414763934e+04 
       4.134119873502e-02       1.574036529058e+04 
       4.157135756601e-02       1.565630758383e+04 
       4.180545328118e-02       1.557215316493e+04 
       4.204369541649e-02       1.548773974084e+04 
       4.228630945442e-02       1.540317938798e+04 
       4.253353844268e-02       1.531835089740e+04 
       4.278564481935e-02       1.523325139665e+04 
       4.304291247616e-02       1.514790977166e+04 
       4.330564909749e-02       1.506218343488e+04 
       4.357418881937e-02       1.497620085143e+04 
       4.384889526137e-02       1.488974528883e+04 
       4.413016499425e-02       1.480298996407e+04 
       4.441843151894e-02       1.471568231152e+04 
       4.471416984732e-02       1.462799073535e+04 
       4.501790179438e-02       1.453974391608e+04 
       4.533020211437e-02       1.445089931403e+04 
       4.565170564240e-02       1.436146700060e+04 
       4.598311563875e-02       1.427135879534e+04 
       4.632521357835e-02       1.418054155372e+04 
       4.667887068387e-02       1.408881557378e+04 
       4.704506157260e-02       1.399628388959e+04 
       4.742488047693e-02       1.390268846745e+04 
       4.781956061314e-02       1.380809935634e+04 
       4.823049741829e-02       1.371224538822e+04 
       4.865927656146e-02       1.361517261200e+04 
       4.910770787127e-02       1.351656487917e+04 
       4.957786662346e-02       1.341630250935e+04 
       5.007214401207e-02       1.331426835255e+04 
       5.059330910446e-02       1.321010203339e+04 
       5.114458516397e-02       1.310354331176e+04 
       5.172974391674e-02       1.299431159691e+04 
       5.235322210786e-02       1.288197856590e+04 
       5.302026543445e-02       1.276602836138e+04 
       5.373710540629e-02       1.264574666042e+04 
       5.451117431396e-02       1.252041214484e+04 
       5.535136114371e-02       1.238890918159e+04 
