# dimensionless total lensed [l(l+1)/2pi] C_l's
# for l=2 to 2500, i.e. number of multipoles equal to 2499
#
# -> if you prefer output in CAMB/HealPix/LensPix units/order, set 'format' to 'camb' in input file
# -> if you don't want to see such a header, set 'headers' to 'no' in input file
# -> for CMB lensing (phi), these are C_l^phi-phi for the lensing potential.
#    Remember the conversion factors:
#    C_l^dd (deflection) = l(l+1) C_l^phi-phi
#    C_l^gg (shear/convergence) = 1/4 (l(l+1))^2 C_l^phi-phi
#
# 1:l     2:TT                     3:EE                     4:TE                     5:BB                     6:phiphi                 7:TPhi                   8:Ephi               
    2       1.455971855503e-10       4.104009446928e-15       3.391615534712e-13       2.264328002072e-19       7.904295671315e-09       4.948076818439e-10      -1.809233282956e-12 
    3       1.363658910171e-10       5.176064694483e-15       3.839428116637e-13       4.529584191154e-19       4.895496000886e-09       3.493396838322e-10      -1.358681204438e-12 
    4       1.280903536460e-10       4.391921568335e-15       3.596210618345e-13       7.551351549204e-19       3.415817299852e-09       2.635056158899e-10      -8.749569946457e-13 
    5       1.219840628520e-10       2.872986014666e-15       3.060875865289e-13       1.133081787356e-18       2.553684885880e-09       2.074900673047e-10      -4.723624212545e-13 
    6       1.177848418338e-10       1.585199215039e-15       2.462948633423e-13       1.586942626266e-18       1.996071414592e-09       1.684691328404e-10      -1.805577861955e-13 
    7       1.150659012071e-10       8.634259183381e-16       1.934374624895e-13       2.116884919763e-18       1.610208767103e-09       1.399946687566e-10       7.760807368474e-16 
    8       1.133872249276e-10       5.727449717344e-16       1.532162080864e-13       2.723095920160e-18       1.330097492567e-09       1.184189989752e-10       8.855423823800e-14 
    9       1.125037521986e-10       4.657552508628e-16       1.267421745996e-13       3.405779693274e-18       1.119566930654e-09       1.016305759337e-10       1.078448055552e-13 
   10       1.122598975782e-10       3.952975107519e-16       1.124492989067e-13       4.165153762780e-18       9.571333065909e-10       8.836023055208e-11       8.563633932750e-14 
   11       1.124229672044e-10       3.322874464471e-16       1.076451014930e-13       5.001445684161e-18       8.093842316182e-10       7.796262507056e-11       4.635415080612e-14 
   12       1.129516826061e-10       2.937083700487e-16       1.093796584199e-13       5.914889642477e-18       7.074104094838e-10       6.905602529508e-11       7.286064347643e-15 
   13       1.137474747283e-10       2.868640546512e-16       1.150142904901e-13       6.905723164523e-18       6.236558882253e-10       6.146161812711e-11      -2.097958589165e-14 
   14       1.147438193422e-10       3.019996409471e-16       1.226186790601e-13       7.974184029334e-18       5.539471016644e-10       5.513861143787e-11      -3.451185676248e-14 
   15       1.159503812927e-10       3.289835959539e-16       1.309141506505e-13       9.120507451526e-18       4.952593082564e-10       4.980594156257e-11      -3.495182275320e-14 
   16       1.172724685033e-10       3.676237772246e-16       1.393334770672e-13       1.034492360014e-17       4.453451877423e-10       4.510895618939e-11      -2.708149862450e-14 
   17       1.187660769724e-10       4.236420256059e-16       1.478821813660e-13       1.164765550187e-17       4.025134127716e-10       4.103364880187e-11      -1.601878668856e-14 
   18       1.203402564095e-10       5.008894773504e-16       1.566394775950e-13       1.302891719671e-17       3.653289405986e-10       3.745448464401e-11      -6.478335463271e-15 
   19       1.220015134067e-10       5.990726808949e-16       1.657930627875e-13       1.448891332314e-17       3.332032608680e-10       3.433706962270e-11      -6.572966284538e-16 
   20       1.237500122907e-10       7.160651009953e-16       1.755292167877e-13       1.602783647188e-17       3.049037373152e-10       3.161240435629e-11       3.362625744600e-16 
   21       1.255800449236e-10       8.515608162805e-16       1.857570324465e-13       1.764586937969e-17       2.799876669504e-10       2.921738450329e-11      -2.520618869753e-15 
   22       1.274549365173e-10       1.005567134973e-15       1.962177621427e-13       1.934318203625e-17       2.578597358541e-10       2.705570300885e-11      -7.150940976290e-15 
   23       1.293887743886e-10       1.178252254052e-15       2.065750812683e-13       2.111993522339e-17       2.382166289745e-10       2.512276795743e-11      -1.179087794083e-14 
   24       1.313891469446e-10       1.369717617746e-15       2.164259553097e-13       2.297627757017e-17       2.206054051429e-10       2.341262511817e-11      -1.475354355429e-14 
   25       1.334538794467e-10       1.580373638037e-15       2.254748822227e-13       2.491235067007e-17       2.048196757236e-10       2.187519613039e-11      -1.562643565543e-14 
   26       1.355619968466e-10       1.810945437416e-15       2.334786071043e-13       2.692828553930e-17       1.905745809710e-10       2.043809178716e-11      -1.456969010738e-14 
   27       1.377081474124e-10       2.063496898082e-15       2.404012374241e-13       2.902420754553e-17       1.777002485601e-10       1.910844819913e-11      -1.230199844664e-14 
   28       1.398828050286e-10       2.340482734939e-15       2.462928343460e-13       3.120023397182e-17       1.659757779759e-10       1.790733712716e-11      -9.788625918143e-15 
   29       1.420949390760e-10       2.643313221209e-15       2.512062313291e-13       3.345648214529e-17       1.553413898911e-10       1.683177603912e-11      -7.600447143673e-15 
   30       1.443477005560e-10       2.973044353863e-15       2.552231374085e-13       3.579306253421e-17       1.456826705950e-10       1.585876997694e-11      -6.271603610085e-15 
   31       1.466338100058e-10       3.330653424343e-15       2.584234226387e-13       3.821007868226e-17       1.368024628067e-10       1.495648508755e-11      -6.256068729777e-15 
   32       1.489572845857e-10       3.717009249368e-15       2.607355568219e-13       4.070763757308e-17       1.286551839818e-10       1.411982381018e-11      -7.243522235182e-15 
   33       1.513171753868e-10       4.132875524254e-15       2.620286335661e-13       4.328584284082e-17       1.211837166178e-10       1.334647990667e-11      -8.570243352054e-15 
   34       1.537049941084e-10       4.578985841236e-15       2.621617880409e-13       4.594479349882e-17       1.142840393704e-10       1.262974227375e-11      -9.542504854518e-15 
   35       1.561202350017e-10       5.056309473286e-15       2.610283541784e-13       4.868458920088e-17       1.079209413755e-10       1.196804026655e-11      -9.997065979249e-15 
   36       1.585584591215e-10       5.565872777051e-15       2.585255240539e-13       5.150532682775e-17       1.020433553916e-10       1.135782309427e-11      -9.932345272939e-15 
   37       1.610115100903e-10       6.108648651373e-15       2.545607065515e-13       5.440709879159e-17       9.657478382341e-11       1.079267529522e-11      -9.386168270249e-15 
   38       1.634855662265e-10       6.685422485100e-15       2.491154612266e-13       5.738999182855e-17       9.150113567851e-11       1.027051092917e-11      -8.517934564402e-15 
   39       1.659879294695e-10       7.296875740068e-15       2.422033499308e-13       6.045408784474e-17       8.680637649250e-11       9.788163644499e-12      -7.558220506477e-15 
   40       1.685215453016e-10       7.943615715653e-15       2.338540212384e-13       6.359946425448e-17       8.244581219127e-11       9.339093586707e-12      -6.791163404544e-15 
   41       1.710861344926e-10       8.626224765272e-15       2.240960261149e-13       6.682619150324e-17       7.836167190551e-11       8.915489843202e-12      -6.476296319005e-15 
   42       1.736832493776e-10       9.345438704449e-15       2.128962920093e-13       7.013432464169e-17       7.454196784308e-11       8.516089998509e-12      -6.575283441766e-15 
   43       1.763120107989e-10       1.010201843601e-14       2.002025173973e-13       7.352390902623e-17       7.097658792083e-11       8.140423635560e-12      -6.941945488425e-15 
   44       1.789672249391e-10       1.089669991887e-14       1.859592833862e-13       7.699498241202e-17       6.763963220985e-11       7.786522772799e-12      -7.393974074239e-15 
   45       1.816421804011e-10       1.173014646772e-14       1.701133212343e-13       8.054757175761e-17       6.449866930533e-11       7.451768740232e-12      -7.755758582949e-15 
   46       1.843389661382e-10       1.260279120444e-14       1.526319303514e-13       8.418168288320e-17       6.154876734912e-11       7.136023011746e-12      -8.007347014857e-15 
   47       1.870605672088e-10       1.351494565968e-14       1.334895341604e-13       8.789730744357e-17       5.878649885314e-11       6.839224268092e-12      -8.176256131269e-15 
   48       1.898077358708e-10       1.446683862674e-14       1.126625858136e-13       9.169442536341e-17       5.619967610628e-11       6.560435650322e-12      -8.296671016451e-15 
   49       1.925787809377e-10       1.545861239162e-14       9.012957659804e-14       9.557300449982e-17       5.376669971550e-11       6.297778240702e-12      -8.409827061395e-15 
   50       1.953712116112e-10       1.649036452368e-14       6.586825500180e-14       9.953300062664e-17       5.146306495321e-11       6.049028425352e-12      -8.554964754836e-15 
   51       1.981876836965e-10       1.756229536697e-14       3.984637451352e-14       1.035743581656e-16       4.928447421485e-11       5.813755462482e-12      -8.738413387130e-15 
   52       2.010313033100e-10       1.867459406721e-14       1.202844894655e-14       1.076970090700e-16       4.722887209015e-11       5.591649150576e-12      -8.956775749630e-15 
   53       2.039037930240e-10       1.982739492302e-14      -1.762179766375e-14       1.119008722060e-16       4.528952871858e-11       5.381872217548e-12      -9.205561684798e-15 
   54       2.068053684928e-10       2.102077575999e-14      -4.914155391789e-14       1.161858530296e-16       4.345472516848e-11       5.183025043145e-12      -9.479126437374e-15 
   55       2.097355035929e-10       2.225475940017e-14      -8.256192508286e-14       1.205518513099e-16       4.171132885324e-11       4.993576257450e-12      -9.770192440383e-15 
   56       2.126957310681e-10       2.352932222260e-14      -1.178846285371e-13       1.249987872822e-16       4.005728066885e-11       4.813360619136e-12      -1.006841678825e-14 
   57       2.156873215253e-10       2.484438488151e-14      -1.550997241689e-13       1.295265814274e-16       3.849165884613e-11       4.642391450856e-12      -1.036135991048e-14 
   58       2.187103690525e-10       2.619980792482e-14      -1.941920748392e-13       1.341351469869e-16       3.701090118649e-11       4.480410610927e-12      -1.063479477400e-14 
   59       2.217637024623e-10       2.759539028886e-14      -2.351411918827e-13       1.388243899539e-16       3.560864200086e-11       4.326871366761e-12      -1.087262900453e-14 
   60       2.248447965352e-10       2.903086779305e-14      -2.779210806083e-13       1.435942090645e-16       3.427554904869e-11       4.180921268286e-12      -1.105682700791e-14 
   61       2.279509824143e-10       3.050587461667e-14      -3.225060518390e-13       1.484445104130e-16       3.300191452316e-11       4.041647442986e-12      -1.117167236108e-14 
   62       2.310835970617e-10       3.201982103014e-14      -3.688900303904e-13       1.533752551523e-16       3.178647650152e-11       3.908915566044e-12      -1.121784917353e-14 
   63       2.342446119310e-10       3.357198542314e-14      -4.170713261498e-13       1.583864225329e-16       3.062929722057e-11       3.782689671666e-12      -1.120139762587e-14 
   64       2.374353694097e-10       3.516154627409e-14      -4.670470845871e-13       1.634779966701e-16       2.952910957720e-11       3.662777722990e-12      -1.112971125724e-14 
   65       2.406565352840e-10       3.678757947027e-14      -5.188133215538e-13       1.686499669988e-16       2.848324145120e-11       3.548822811947e-12      -1.101159680008e-14 
   66       2.439080512030e-10       3.844905562801e-14      -5.723649580816e-13       1.739023287281e-16       2.748754002805e-11       3.440294359132e-12      -1.085733401503e-14 
   67       2.471890871437e-10       4.014483741287e-14      -6.276958551811e-13       1.792350832974e-16       2.653629612169e-11       3.336479313667e-12      -1.067873552572e-14 
   68       2.504987110835e-10       4.187377020586e-14      -6.847962068436e-13       1.846482466484e-16       2.562376840200e-11       3.236669438767e-12      -1.048718345229e-14 
   69       2.538381618442e-10       4.363498142581e-14      -7.436440278476e-13       1.901418749736e-16       2.474928387988e-11       3.140786906526e-12      -1.028714359511e-14 
   70       2.572089535071e-10       4.542763732207e-14      -8.042119957471e-13       1.957160450271e-16       2.391303971343e-11       3.048870238589e-12      -1.008143850553e-14 
   71       2.606121702844e-10       4.725085470755e-14      -8.664699078807e-13       2.013708474114e-16       2.311456061044e-11       2.960885718998e-12      -9.873162353158e-15 
   72       2.640484373261e-10       4.910370066626e-14      -9.303846486055e-13       2.071063872324e-16       2.235266406946e-11       2.876723609037e-12      -9.665689016365e-15 
   73       2.675178915277e-10       5.098519226081e-14      -9.959201565303e-13       2.129227847549e-16       2.162542562090e-11       2.796194362078e-12      -9.462680172847e-15 
   74       2.710201523376e-10       5.289429623999e-14      -1.063037391750e-12       2.188201760570e-16       2.093014406802e-11       2.719024838424e-12      -9.268093390166e-15 
   75       2.745542925647e-10       5.482992874623e-14      -1.131694303078e-12       2.247987136856e-16       2.026330672808e-11       2.644854520159e-12      -9.086190216302e-15 
   76       2.781193578499e-10       5.679092319121e-14      -1.201847779315e-12       2.308585608418e-16       1.962146101527e-11       2.573327589908e-12      -8.920695132087e-15 
   77       2.817160989735e-10       5.877592776583e-14      -1.273459986282e-12       2.369998712650e-16       1.900408951638e-11       2.504396919325e-12      -8.772077461498e-15 
   78       2.853455038732e-10       6.078348862247e-14      -1.346493131212e-12       2.432228068536e-16       1.841119848495e-11       2.438068895058e-12      -8.639786200664e-15 
   79       2.890082593527e-10       6.281207911905e-14      -1.420907589025e-12       2.495275443229e-16       1.784244209857e-11       2.374310682622e-12      -8.523046013395e-15 
   80       2.927047331400e-10       6.486009887387e-14      -1.496661910247e-12       2.559142757279e-16       1.729710628528e-11       2.313048407008e-12      -8.420847909462e-15 
   81       2.964349559457e-10       6.692587282030e-14      -1.573712828923e-12       2.623832089851e-16       1.677409254989e-11       2.254165333304e-12      -8.331939922885e-15 
   82       3.001986035211e-10       6.900765026169e-14      -1.652015270540e-12       2.689345683953e-16       1.627190180030e-11       2.197500047297e-12      -8.254817790208e-15 
   83       3.039949787167e-10       7.110360392608e-14      -1.731522359943e-12       2.755685951657e-16       1.578861817387e-11       2.142844636091e-12      -8.187715628788e-15 
   84       3.078233510305e-10       7.321188501574e-14      -1.812185389618e-12       2.822855446825e-16       1.532237435538e-11       2.089996122483e-12      -8.128824345543e-15 
   85       3.116840792286e-10       7.533080091190e-14      -1.893953701164e-12       2.890856766638e-16       1.487287159095e-11       2.038924550421e-12      -8.077008883866e-15 
   86       3.155776428018e-10       7.745866533370e-14      -1.976774798599e-12       2.959692643244e-16       1.444008317826e-11       1.989629558356e-12      -8.031193342996e-15 
   87       3.195042892641e-10       7.959374495865e-14      -2.060594393388e-12       3.029365979414e-16       1.402378741707e-11       1.942088692254e-12      -7.990138406172e-15 
   88       3.234640222199e-10       8.173425941855e-14      -2.145356411698e-12       3.099879853221e-16       1.362355952789e-11       1.896256481231e-12      -7.952435846317e-15 
   89       3.274565894302e-10       8.387838129536e-14      -2.231003001651e-12       3.171237522716e-16       1.323876357061e-11       1.852063513187e-12      -7.916503031730e-15 
   90       3.314814708790e-10       8.602423611707e-14      -2.317474540570e-12       3.243442430606e-16       1.286854436311e-11       1.809415510436e-12      -7.880577431763e-15 
   91       3.355378668401e-10       8.816990235359e-14      -2.404709642235e-12       3.316498208933e-16       1.251181939995e-11       1.768192405347e-12      -7.842711122510e-15 
   92       3.396246859433e-10       9.031341141264e-14      -2.492645164137e-12       3.390408683750e-16       1.216727077096e-11       1.728247415969e-12      -7.800765292497e-15 
   93       3.437408827885e-10       9.245278122125e-14      -2.581216904924e-12       3.465177946407e-16       1.183365764732e-11       1.689443263695e-12      -7.752902085829e-15 
   94       3.478865547917e-10       9.458612275695e-14      -2.670361801009e-12       3.540810569513e-16       1.151082505372e-11       1.651769064994e-12      -7.699156683732e-15 
   95       3.520619890082e-10       9.671154960580e-14      -2.760016075277e-12       3.617311432256e-16       1.119883257997e-11       1.615239392945e-12      -7.640092605925e-15 
   96       3.562673202446e-10       9.882714625518e-14      -2.850114592828e-12       3.694685662203e-16       1.089764370036e-11       1.579858292700e-12      -7.576326755224e-15 
   97       3.605025239233e-10       1.009309685506e-13      -2.940590877698e-12       3.772938640893e-16       1.060712209269e-11       1.545618866966e-12      -7.508530750093e-15 
   98       3.647674089470e-10       1.030210441529e-13      -3.031377129588e-12       3.852076009428e-16       1.032702795733e-11       1.512502861474e-12      -7.437432257203e-15 
   99       3.690616105640e-10       1.050953729945e-13      -3.122404240590e-12       3.932103674067e-16       1.005701433616e-11       1.480480250461e-12      -7.363816323983e-15 
  100       3.733845832321e-10       1.071519277371e-13      -3.213601811910e-12       4.013027811814e-16       9.796623431628e-12       1.449508822142e-12      -7.288526711180e-15 
  101       3.777355934839e-10       1.091886542281e-13      -3.304898170599e-12       4.094854876015e-16       9.545282925770e-12       1.419533764191e-12      -7.212467225413e-15 
  102       3.821137127910e-10       1.112034719576e-13      -3.396220386273e-12       4.177591601945e-16       9.302302299195e-12       1.390487249210e-12      -7.136603051725e-15 
  103       3.865178104291e-10       1.131942745154e-13      -3.487494287845e-12       4.261245012402e-16       9.066869150112e-12       1.362288020212e-12      -7.061962086144e-15 
  104       3.909467851756e-10       1.151589823669e-13      -3.578645277362e-12       4.345822226238e-16       8.838233233759e-12       1.334860202629e-12      -6.989430937886e-15 
  105       3.954003114176e-10       1.170957083174e-13      -3.669600860704e-12       4.431329842453e-16       8.616294822706e-12       1.308193527322e-12      -6.919108681605e-15 
  106       3.998781809992e-10       1.190026153557e-13      -3.760288491522e-12       4.517774482938e-16       8.401089333036e-12       1.282290507904e-12      -6.850867884353e-15 
  107       4.043800689323e-10       1.208778673500e-13      -3.850634829825e-12       4.605162985492e-16       8.192605102680e-12       1.257147739880e-12      -6.784551227610e-15 
