# dimensionless total [l(l+1)/2pi] C_l's
# for l=2 to 3000, i.e. number of multipoles equal to 2999
#
# -> if you prefer output in CAMB/HealPix/LensPix units/order, set 'format' to 'camb' in input file
# -> if you don't want to see such a header, set 'headers' to 'no' in input file
# -> for CMB lensing (phi), these are C_l^phi-phi for the lensing potential.
#    Remember the conversion factors:
#    C_l^dd (deflection) = l(l+1) C_l^phi-phi
#    C_l^gg (shear/convergence) = 1/4 (l(l+1))^2 C_l^phi-phi
#
# 1:l     2:TT                     3:EE                     4:TE                     5:BB                     6:phiphi                 7:TPhi                   8:Ephi               
    2       1.456008608475e-10       4.103820381085e-15       3.392023285268e-13       0.000000000000e+00       7.906181811286e-09       4.948781679626e-10      -1.809238696215e-12 
    3       1.363671875083e-10       5.175678441598e-15       3.839993115226e-13       0.000000000000e+00       4.897481398852e-09       3.494122727285e-10      -1.358687510897e-12 
    4       1.280880025193e-10       4.391252206298e-15       3.596846706380e-13       0.000000000000e+00       3.417289577387e-09       2.635746163359e-10      -8.749630690149e-13 
    5       1.219773663547e-10       2.871949516261e-15       3.061513140891e-13       0.000000000000e+00       2.554783588325e-09       2.075542366576e-10      -4.723681482421e-13 
    6       1.177734493289e-10       1.583713016668e-15       2.463544903931e-13       0.000000000000e+00       1.996966579232e-09       1.685287151892e-10      -1.805633470061e-13 
    7       1.150496222429e-10       8.614088697502e-16       1.934913261101e-13       0.000000000000e+00       1.610965929948e-09       1.400501711560e-10       7.705047192119e-16 
    8       1.133659585864e-10       5.701193895473e-16       1.532646522111e-13       0.000000000000e+00       1.330741857640e-09       1.184707955618e-10       8.854848904312e-14 
    9       1.124774926779e-10       4.624485245419e-16       1.267867593562e-13       0.000000000000e+00       1.120116541694e-09       1.016789446034e-10       1.078387244998e-13 
   10       1.122286773757e-10       3.912411898096e-16       1.124921927682e-13       0.000000000000e+00       9.576029174894e-10       8.840547764781e-11       8.562984091676e-14 
   11       1.123869032314e-10       3.274146771461e-16       1.076888133552e-13       0.000000000000e+00       8.098956800665e-10       7.800687201627e-11       4.634751932948e-14 
   12       1.129109267756e-10       2.879519652878e-16       1.094267482950e-13       0.000000000000e+00       7.078768605660e-10       6.909777472464e-11       7.279379961489e-15 
   13       1.137021730507e-10       2.801566151568e-16       1.150669612270e-13       0.000000000000e+00       6.240837419181e-10       6.150109995739e-11      -2.098580823887e-14 
   14       1.146940634445e-10       2.942750493158e-16       1.226786634188e-13       0.000000000000e+00       5.543414822608e-10       5.517602613481e-11      -3.451706503385e-14 
   15       1.158963651183e-10       3.201784247529e-16       1.309827730744e-13       0.000000000000e+00       4.956243799696e-10       4.984143258231e-11      -3.495583128543e-14 
   16       1.172143047009e-10       3.576772268141e-16       1.394117404484e-13       0.000000000000e+00       4.456843792714e-10       4.514267667747e-11      -2.708451535258e-14 
   17       1.187039223351e-10       4.124942925069e-16       1.479707574179e-13       0.000000000000e+00       4.028295866210e-10       4.106567663227e-11      -1.602123454429e-14 
   18       1.202742451413e-10       4.884814509085e-16       1.567387727268e-13       0.000000000000e+00       3.656244732555e-10       3.748494586626e-11      -6.480861112211e-15 
   19       1.219317851893e-10       5.853463664661e-16       1.659033587693e-13       0.000000000000e+00       3.334802864361e-10       3.436609602697e-11      -6.605296532607e-16 
   20       1.236767319368e-10       7.009637736388e-16       1.756506923555e-13       0.000000000000e+00       3.051639614532e-10       3.164007319401e-11       3.318728498085e-16 
   21       1.255033800864e-10       8.350298163339e-16       1.858897121752e-13       0.000000000000e+00       2.802326607516e-10       2.924377114103e-11      -2.526340807071e-15 
   22       1.273750492105e-10       9.875541423696e-16       1.963615047121e-13       0.000000000000e+00       2.580907950669e-10       2.708087756527e-11      -7.157825202534e-15 
   23       1.293058258204e-10       1.158706844312e-15       2.067296648768e-13       0.000000000000e+00       2.384349503231e-10       2.514678763978e-11      -1.179851501555e-14 
   24       1.313032998106e-10       1.348591109398e-15       2.165911083756e-13       0.000000000000e+00       2.208119946026e-10       2.343552705161e-11      -1.476134622352e-14 
   25       1.333653019809e-10       1.557619162920e-15       2.256502497772e-13       0.000000000000e+00       2.050154674878e-10       2.189705272849e-11      -1.563387017412e-14 
   26       1.354708619382e-10       1.786518306769e-15       2.336637562797e-13       0.000000000000e+00       1.907603757640e-10       2.045900943851e-11      -1.457640079941e-14 
   27       1.376146169154e-10       2.037356262663e-15       2.405957204668e-13       0.000000000000e+00       1.778767786663e-10       1.912848945341e-11      -1.230789133574e-14 
   28       1.397870264134e-10       2.312592056628e-15       2.464962159442e-13       0.000000000000e+00       1.661436694445e-10       1.792649723222e-11      -9.793900847089e-15 
   29       1.419970599759e-10       2.613638704605e-15       2.514180593936e-13       0.000000000000e+00       1.555012582168e-10       1.685006157710e-11      -7.605425233584e-15 
   30       1.442478755730e-10       2.941554392160e-15       2.554429438584e-13       0.000000000000e+00       1.458350791955e-10       1.587622356205e-11      -6.276678552322e-15 
   31       1.465322007224e-10       3.297318701432e-15       2.586507257774e-13       0.000000000000e+00       1.369478650627e-10       1.497317983461e-11      -6.261665591936e-15 
   32       1.488540463366e-10       3.681803690579e-15       2.609698240753e-13       0.000000000000e+00       1.287940206792e-10       1.413583044670e-11      -7.249902142540e-15 
   33       1.512124527064e-10       4.095776720251e-15       2.622692693486e-13       0.000000000000e+00       1.213164039451e-10       1.336184954366e-11      -8.577397215478e-15 
   34       1.535989216539e-10       4.539975103973e-15       2.624081221452e-13       0.000000000000e+00       1.144109340514e-10       1.264450197307e-11      -9.550151119355e-15 
   35       1.560129451201e-10       5.015371347185e-15       2.612795967088e-13       0.000000000000e+00       1.080423872103e-10       1.198221213943e-11      -1.000489004956e-14 
   36       1.584500855735e-10       5.522994898386e-15       2.587807407770e-13       0.000000000000e+00       1.021596695300e-10       1.137142720360e-11      -9.940081508313e-15 
   37       1.609021882112e-10       6.063821804599e-15       2.548188274380e-13       0.000000000000e+00       9.668623679606e-11       1.080572814182e-11      -9.393619690698e-15 
   38       1.633754257477e-10       6.638640868050e-15       2.493753761735e-13       0.000000000000e+00       9.160799632737e-11       1.028303127541e-11      -8.524991885154e-15 
   39       1.658770926046e-10       7.248137082521e-15       2.424639467613e-13       0.000000000000e+00       8.690890894195e-11       9.800173021550e-12      -7.564884216234e-15 
   40       1.684101269809e-10       7.892921339166e-15       2.341142018124e-13       0.000000000000e+00       8.254425276849e-11       9.350614614671e-12      -6.797567968891e-15 
   41       1.709742441718e-10       8.573579699228e-15       2.243546913766e-13       0.000000000000e+00       7.845621812148e-11       8.926545092053e-12      -6.482694569415e-15 
   42       1.735709978415e-10       9.290851997938e-15       2.131522189809e-13       0.000000000000e+00       7.463281330429e-11       8.526703102583e-12      -6.581892315534e-15 
   43       1.761995138387e-10       1.004550333398e-14       2.004543109414e-13       0.000000000000e+00       7.106392274233e-11       8.150618594619e-12      -6.948887815854e-15 
   44       1.788546059777e-10       1.083827398722e-14       1.862053560489e-13       0.000000000000e+00       6.772362946912e-11       7.796322478235e-12      -7.401256478367e-15 
   45       1.815295700458e-10       1.166983160372e-14       1.703518935666e-13       0.000000000000e+00       6.457947918318e-11       7.461194060071e-12      -7.763278202017e-15 
   46       1.842264908475e-10       1.254061325793e-14       1.528611025397e-13       0.000000000000e+00       6.162653970860e-11       7.145094046841e-12      -8.014998113300e-15 
   47       1.869483460033e-10       1.345093433027e-14       1.337073058122e-13       0.000000000000e+00       5.886138397953e-11       6.847959872825e-12      -8.183964414862e-15 
   48       1.896958801267e-10       1.440102746253e-14       1.128668561737e-13       0.000000000000e+00       5.627181678375e-11       6.568852241603e-12      -8.304400774580e-15 
   49       1.924673942325e-10       1.539103878310e-14       9.031814491563e-14       0.000000000000e+00       5.383622269234e-11       6.305888520921e-12      -8.417588711602e-15 
   50       1.952603902143e-10       1.642106981938e-14       6.603880293878e-14       0.000000000000e+00       5.153007808617e-11       6.056841249657e-12      -8.562812021767e-15 
   51       1.980775190846e-10       1.749132540459e-14       3.999638857267e-14       0.000000000000e+00       4.934908388693e-11       5.821279704855e-12      -8.746405134374e-15 
   52       2.009218832962e-10       1.860199939361e-14       1.215518686174e-14       0.000000000000e+00       4.729118480088e-11       5.598894507807e-12      -8.964964259447e-15 
   53       2.037952024192e-10       1.975323089842e-14      -1.752132453210e-14       0.000000000000e+00       4.534964655680e-11       5.388848850209e-12      -9.213990765193e-15 
   54       2.066976898464e-10       2.094510266327e-14      -4.907059888733e-14       0.000000000000e+00       4.351274096958e-11       5.189743188435e-12      -9.487829424717e-15 
   55       2.096288175749e-10       2.217764252130e-14      -8.252400436691e-14       0.000000000000e+00       4.176732471811e-11       5.000045997366e-12      -9.779191307484e-15 
   56       2.125901154891e-10       2.345083191035e-14      -1.178834517557e-13       0.000000000000e+00       4.011133826819e-11       4.819592224343e-12      -1.007772512965e-14 
   57       2.155828515196e-10       2.476459662663e-14      -1.551391769726e-13       0.000000000000e+00       3.854386031468e-11       4.648395242576e-12      -1.037098283076e-14 
   58       2.186071177308e-10       2.611880245670e-14      -1.942762207397e-13       0.000000000000e+00       3.706132642808e-11       4.486196631333e-12      -1.064472759453e-14 
   59       2.216617416270e-10       2.751325367269e-14      -2.352742739732e-13       0.000000000000e+00       3.565736582136e-11       4.332449028363e-12      -1.088285591287e-14 
   60       2.247441974575e-10       2.894769152751e-14      -2.781075231745e-13       0.000000000000e+00       3.432263811676e-11       4.186298982328e-12      -1.106731964995e-14 
   61       2.278518165132e-10       3.042175546496e-14      -3.227504637139e-13       0.000000000000e+00       3.304742689686e-11       4.046832571292e-12      -1.118239091660e-14 
   62       2.309859361188e-10       3.193485997983e-14      -3.691972142457e-13       0.000000000000e+00       3.183046991519e-11       3.913915475581e-12      -1.122875166313e-14 
   63       2.341485287757e-10       3.348628732167e-14      -4.174462829949e-13       0.000000000000e+00       3.067183028114e-11       3.787511897767e-12      -1.121244274085e-14 
   64       2.373409388122e-10       3.507521970645e-14      -4.674950164821e-13       0.000000000000e+00       2.957024031239e-11       3.667429800100e-12      -1.114085883464e-14 
   65       2.405638349063e-10       3.670073662869e-14      -5.193396342715e-13       0.000000000000e+00       2.852302577233e-11       3.553312094306e-12      -1.102280832102e-14 
   66       2.438171626067e-10       3.836181217374e-14      -5.729752637185e-13       0.000000000000e+00       2.752603010760e-11       3.444627831376e-12      -1.086857312633e-14 
   67       2.471000968557e-10       4.005731232995e-14      -6.283959747182e-13       0.000000000000e+00       2.657353868553e-11       3.340663391373e-12      -1.068996858483e-14 
   68       2.504117105080e-10       4.178608569440e-14      -6.855921752532e-13       0.000000000000e+00       2.565980464554e-11       3.240709957943e-12      -1.049838016650e-14 
   69       2.537532433175e-10       4.354726294055e-14      -7.445421075559e-13       0.000000000000e+00       2.478415482892e-11       3.144689746935e-12      -1.029827791322e-14 
   70       2.571262095279e-10       4.534001348097e-14      -8.052186833507e-13       0.000000000000e+00       2.394678709531e-11       3.052641424175e-12      -1.009248935039e-14 
   71       2.605316939105e-10       4.716345714890e-14      -8.675919384303e-13       0.000000000000e+00       2.314722607281e-11       2.964531325761e-12      -9.884114312353e-15 
   72       2.639703225985e-10       4.901666389908e-14      -9.316289999050e-13       0.000000000000e+00       2.238428835738e-11       2.880249667929e-12      -9.676533058101e-15 
   73       2.674422339202e-10       5.089865350849e-14      -9.972940534521e-13       0.000000000000e+00       2.165604771231e-11       2.799606756924e-12      -9.473414386940e-15 
   74       2.709470492335e-10       5.280839527720e-14      -1.064548310565e-12       0.000000000000e+00       2.095980026773e-11       2.722329198860e-12      -9.278723754152e-15 
   75       2.744838437594e-10       5.474480772909e-14      -1.133349975802e-12       0.000000000000e+00       2.029202972004e-11       2.648056109590e-12      -9.096731386662e-15 
   76       2.780516661535e-10       5.670672632913e-14      -1.203656189852e-12       0.000000000000e+00       1.964927990045e-11       2.576431233026e-12      -8.931169430348e-15 
   77       2.816512710768e-10       5.869280049995e-14      -1.275429340199e-12       0.000000000000e+00       1.903103310675e-11       2.507407067626e-12      -8.782508009382e-15 
   78       2.852836510464e-10       6.070157719489e-14      -1.348631847083e-12       0.000000000000e+00       1.843729586225e-11       2.440989570593e-12      -8.650194879917e-15 
   79       2.889494981026e-10       6.273153027594e-14      -1.423224297410e-12       0.000000000000e+00       1.786772217852e-11       2.377145375445e-12      -8.533453149008e-15 
   80       2.926491858948e-10       6.478105955868e-14      -1.499165452521e-12       0.000000000000e+00       1.732159736113e-11       2.315799968567e-12      -8.431271940475e-15 
   81       2.963827517677e-10       6.684848985724e-14      -1.576412255955e-12       0.000000000000e+00       1.679782181552e-11       2.256835865751e-12      -8.342397060783e-15 
   82       3.001498788477e-10       6.893207002923e-14      -1.654919841215e-12       0.000000000000e+00       1.629489485275e-11       2.200090788745e-12      -8.265321664909e-15 
   83       3.039498781289e-10       7.102997202067e-14      -1.734641539531e-12       0.000000000000e+00       1.581089849536e-11       2.145355841803e-12      -8.198276922213e-15 
   84       3.077820262840e-10       7.314034603495e-14      -1.815528850685e-12       0.000000000000e+00       1.534396335679e-11       2.092427242641e-12      -8.139450829625e-15 
   85       3.116466826827e-10       7.526149863990e-14      -1.897531332921e-12       0.000000000000e+00       1.489379049190e-11       2.041275363059e-12      -8.087706776076e-15 
   86       3.155443255683e-10       7.739174257336e-14      -1.980596708933e-12       0.000000000000e+00       1.446035331879e-11       1.991900498761e-12      -8.041967541024e-15 
   87       3.194752010377e-10       7.952934323272e-14      -2.064670908228e-12       0.000000000000e+00       1.404343000384e-11       1.944280896764e-12      -8.000992319866e-15 
   88       3.234393111065e-10       8.167251866318e-14      -2.149698074265e-12       0.000000000000e+00       1.364259536956e-11       1.898371832022e-12      -7.963371224211e-15 
   89       3.274364017734e-10       8.381943954593e-14      -2.235620571602e-12       0.000000000000e+00       1.325721280252e-11       1.854104684047e-12      -7.927519782169e-15 
   90       3.314659510854e-10       8.596822918637e-14      -2.322378993037e-12       0.000000000000e+00       1.288642616119e-11       1.811386013526e-12      -7.891673438623e-15 
   91       3.355271572020e-10       8.811696350228e-14      -2.409912166755e-12       0.000000000000e+00       1.252915168384e-11       1.770096638950e-12      -7.853882055518e-15 
   92       3.396189264603e-10       9.026367101202e-14      -2.498157163472e-12       0.000000000000e+00       1.218406989642e-11       1.730090713224e-12      -7.812004412133e-15 
   93       3.437402129477e-10       9.240636615943e-14      -2.587049979602e-12       0.000000000000e+00       1.184993849528e-11       1.691231694245e-12      -7.764200636224e-15 
   94       3.478911215652e-10       9.454315504727e-14      -2.676527688781e-12       0.000000000000e+00       1.152660240087e-11       1.653508450715e-12      -7.710506162402e-15 
   95       3.520719495697e-10       9.667214565824e-14      -2.766526628650e-12       0.000000000000e+00       1.121412136157e-11       1.616934992659e-12      -7.651485430263e-15 
   96       3.562828428333e-10       9.879141637514e-14      -2.856981769863e-12       0.000000000000e+00       1.091245887772e-11       1.581514722061e-12      -7.587756363455e-15 
   97       3.605237887330e-10       1.008990164266e-13      -2.947826732509e-12       0.000000000000e+00       1.062147851551e-11       1.547240015913e-12      -7.519991704973e-15 
   98       3.647946090405e-10       1.029929663329e-13      -3.038993802543e-12       0.000000000000e+00       1.034094022084e-11       1.514091809279e-12      -7.448920352458e-15 
   99       3.690949528123e-10       1.050712583519e-13      -3.130413948202e-12       0.000000000000e+00       1.007049663317e-11       1.482039178347e-12      -7.375328693488e-15 
  100       3.734242892792e-10       1.071318569247e-13      -3.222016836433e-12       0.000000000000e+00       9.809689399350e-12       1.451038923493e-12      -7.300061940876e-15 
  101       3.777819007364e-10       1.091726991215e-13      -3.313730849316e-12       0.000000000000e+00       9.557945487502e-12       1.421035152335e-12      -7.224025467967e-15 
  102       3.821668754332e-10       1.111916950873e-13      -3.405483100485e-12       0.000000000000e+00       9.314573500857e-12       1.391958862795e-12      -7.148186143930e-15 
  103       3.865781004628e-10       1.131867284880e-13      -3.497199451557e-12       0.000000000000e+00       9.078759991615e-12       1.363727526152e-12      -7.073573669057e-15 
  104       3.910144904874e-10       1.151557092601e-13      -3.588805330433e-12       0.000000000000e+00       8.849753748703e-12       1.336264206161e-12      -7.001076138629e-15 
  105       3.954757244152e-10       1.170967390156e-13      -3.680228276723e-12       0.000000000000e+00       8.627454952429e-12       1.309558755822e-12      -6.930792406799e-15 
  106       3.999615954458e-10       1.190079689161e-13      -3.771395772395e-12       0.000000000000e+00       8.411899104502e-12       1.283614148589e-12      -6.862594318607e-15 
  107       4.044717796570e-10       1.208875503724e-13      -3.862234495525e-12       0.000000000000e+00       8.203074560105e-12       1.258427480703e-12      -6.796323754256e-15 
