# dimensionless total [l(l+1)/2pi] C_l's
# for l=2 to 3000, i.e. number of multipoles equal to 2999
#
# -> if you prefer output in CAMB/HealPix/LensPix units/order, set 'format' to 'camb' in input file
# -> if you don't want to see such a header, set 'headers' to 'no' in input file
# -> for CMB lensing (phi), these are C_l^phi-phi for the lensing potential.
#    Remember the conversion factors:
#    C_l^dd (deflection) = l(l+1) C_l^phi-phi
#    C_l^gg (shear/convergence) = 1/4 (l(l+1))^2 C_l^phi-phi
#
# 1:l     2:TT                     3:EE                     4:TE                     5:BB                     6:phiphi                 7:TPhi                   8:Ephi               
    2       1.454900289873e-10       4.137406615688e-15       3.399442928080e-13       0.000000000000e+00       7.890911752588e-09       4.947420853308e-10      -1.820512662092e-12 
    3       1.362748609348e-10       5.228406957909e-15       3.858392934027e-13       0.000000000000e+00       4.910568312354e-09       3.489711198530e-10      -1.366413505381e-12 
    4       1.280123257226e-10       4.439370650656e-15       3.614535514380e-13       0.000000000000e+00       3.423234064992e-09       2.631679216141e-10      -8.805403657498e-13 
    5       1.219123093814e-10       2.904598784984e-15       3.076428823914e-13       0.000000000000e+00       2.556769701653e-09       2.072129699921e-10      -4.758120977446e-13 
    6       1.177146525763e-10       1.601663292269e-15       2.474959759387e-13       0.000000000000e+00       1.996493935811e-09       1.682243837693e-10      -1.822133756133e-13 
    7       1.149954986599e-10       8.703670781964e-16       1.942900485441e-13       0.000000000000e+00       1.610099219082e-09       1.397893867398e-10       3.669175795590e-16 
    8       1.133177927977e-10       5.752807591532e-16       1.537630532873e-13       0.000000000000e+00       1.330978846074e-09       1.182666587993e-10       8.884400898928e-14 
    9       1.124353667578e-10       4.663042272904e-16       1.270549682056e-13       0.000000000000e+00       1.121421976202e-09       1.015259589215e-10       1.083870052996e-13 
   10       1.121896013347e-10       3.943341384689e-16       1.126049991649e-13       0.000000000000e+00       9.590175509740e-10       8.828027090368e-11       8.613512661948e-14 
   11       1.123536193963e-10       3.297422652290e-16       1.076907544662e-13       0.000000000000e+00       8.094020273161e-10       7.789563672649e-11       4.666479435545e-14 
   12       1.128797268244e-10       2.896309912410e-16       1.093846838529e-13       0.000000000000e+00       7.074128569006e-10       6.898612418271e-11       7.365159015760e-15 
   13       1.136721377462e-10       2.813444444841e-16       1.150146109577e-13       0.000000000000e+00       6.236464912584e-10       6.139762107634e-11      -2.109333993475e-14 
   14       1.146690510755e-10       2.950304065294e-16       1.225824943739e-13       0.000000000000e+00       5.539290056416e-10       5.508004377001e-11      -3.476211600987e-14 
   15       1.158722586993e-10       3.204930067929e-16       1.308266459714e-13       0.000000000000e+00       4.952345398083e-10       4.974309790216e-11      -3.527630880903e-14 
   16       1.171900102505e-10       3.574207954937e-16       1.392518265778e-13       0.000000000000e+00       4.453151266301e-10       4.505148146252e-11      -2.737644447333e-14 
   17       1.186843389712e-10       4.115521097306e-16       1.477531990578e-13       0.000000000000e+00       4.024792618920e-10       4.098212797449e-11      -1.619839523947e-14 
   18       1.202551599889e-10       4.870113094819e-16       1.564584615493e-13       0.000000000000e+00       3.652911310693e-10       3.740774976553e-11      -6.496830170517e-15 
   19       1.219098288098e-10       5.834758983875e-16       1.655819665322e-13       0.000000000000e+00       3.331636366322e-10       3.429431216129e-11      -5.328439767521e-16 
   20       1.236540010002e-10       6.986627107531e-16       1.753065777874e-13       0.000000000000e+00       3.048625434285e-10       3.157257555120e-11       5.116212380380e-16 
   21       1.254809478833e-10       8.322670805591e-16       1.855288184131e-13       0.000000000000e+00       2.799450360406e-10       2.918157829471e-11      -2.393678400902e-15 
   22       1.273510420680e-10       9.843142705583e-16       1.959758020988e-13       0.000000000000e+00       2.578161463724e-10       2.702707308467e-11      -7.143303686632e-15 
   23       1.292792274897e-10       1.154786951212e-15       2.063194908966e-13       0.000000000000e+00       2.381724988730e-10       2.509982922012e-11      -1.191036860018e-14 
   24       1.312751168363e-10       1.343614272624e-15       2.161684857718e-13       0.000000000000e+00       2.205609517462e-10       2.338832510245e-11      -1.493480552504e-14 
   25       1.333365829997e-10       1.551580198630e-15       2.252089860613e-13       0.000000000000e+00       2.047750480703e-10       2.184765453661e-11      -1.579670137556e-14 
   26       1.354419023001e-10       1.779862245705e-15       2.331780149570e-13       0.000000000000e+00       1.905299027725e-10       2.041304794787e-11      -1.467730508997e-14 
   27       1.375846434375e-10       2.030165299066e-15       2.400757692371e-13       0.000000000000e+00       1.776556433672e-10       1.908862913066e-11      -1.233536635072e-14 
   28       1.397542050840e-10       2.304375701309e-15       2.459971539244e-13       0.000000000000e+00       1.659313741448e-10       1.788961267372e-11      -9.779957006265e-15 
   29       1.419596966990e-10       2.603932165274e-15       2.509671800713e-13       0.000000000000e+00       1.552972924754e-10       1.681336734885e-11      -7.583506365305e-15 
   30       1.442049282225e-10       2.930151563430e-15       2.550068994229e-13       0.000000000000e+00       1.456389497993e-10       1.583964936900e-11      -6.265672686135e-15 
   31       1.464833405171e-10       3.284277092165e-15       2.581450864872e-13       0.000000000000e+00       1.367591555364e-10       1.493927128294e-11      -6.264239961184e-15 
   32       1.487991183660e-10       3.667173404799e-15       2.603610536663e-13       0.000000000000e+00       1.286123173305e-10       1.410635613423e-11      -7.263607097016e-15 
   33       1.511513185091e-10       4.079501279805e-15       2.616208022212e-13       0.000000000000e+00       1.211413185000e-10       1.333643689915e-11      -8.597591006274e-15 
   34       1.535315408395e-10       4.521896166322e-15       2.618673444578e-13       0.000000000000e+00       1.142421410186e-10       1.262072770365e-11      -9.570037459006e-15 
   35       1.559397495807e-10       4.995354808165e-15       2.609364373963e-13       0.000000000000e+00       1.078795689559e-10       1.195793198837e-11      -1.001707130955e-14 
   36       1.583721732507e-10       5.500978531608e-15       2.586080442951e-13       0.000000000000e+00       1.020025294087e-10       1.134566177025e-11      -9.937138740357e-15 
   37       1.608211714664e-10       6.039804082858e-15       2.546797395619e-13       0.000000000000e+00       9.653452071070e-11       1.077871116489e-11      -9.369034660883e-15 
   38       1.632923318575e-10       6.612573732034e-15       2.491512316745e-13       0.000000000000e+00       9.146144588480e-11       1.025532845954e-11      -8.476551422917e-15 
   39       1.657918863175e-10       7.219882321332e-15       2.421015347053e-13       0.000000000000e+00       8.676726539455e-11       9.772436688168e-12      -7.496520366831e-15 
   40       1.683214669099e-10       7.862231099637e-15       2.336421439758e-13       0.000000000000e+00       8.240728226671e-11       9.323587102893e-12      -6.720634600660e-15 
   41       1.708796345231e-10       8.540106277553e-15       2.238770515689e-13       0.000000000000e+00       7.832372408756e-11       8.901004059220e-12      -6.414574667409e-15 
   42       1.734683180442e-10       9.254259900824e-15       2.127623239342e-13       0.000000000000e+00       7.450459949311e-11       8.503210050079e-12      -6.535365075225e-15 
   43       1.760875928408e-10       1.000551029130e-14       2.002041829192e-13       0.000000000000e+00       7.093979350708e-11       8.129399920147e-12      -6.927858997219e-15 
   44       1.787334370503e-10       1.079466517662e-14       1.860961798489e-13       0.000000000000e+00       6.760340513750e-11       7.777198960471e-12      -7.398867342934e-15 
   45       1.814002319761e-10       1.162245292977e-14       1.703372775747e-13       0.000000000000e+00       6.446300301499e-11       7.443610665757e-12      -7.763019666946e-15 
   46       1.840900534995e-10       1.248929228703e-14       1.528946287568e-13       0.000000000000e+00       6.151365353716e-11       7.128496095523e-12      -8.002172524426e-15 
   47       1.868055096249e-10       1.339545341475e-14       1.337580601982e-13       0.000000000000e+00       5.875192801467e-11       6.831919443610e-12      -8.149705123996e-15 
   48       1.895468899579e-10       1.434111641846e-14       1.129229369033e-13       0.000000000000e+00       5.616563903780e-11       6.553101041155e-12      -8.246911554785e-15 
   49       1.923119502523e-10       1.532636717791e-14       9.039036930093e-14       0.000000000000e+00       5.373318914441e-11       6.290352680009e-12      -8.343452031052e-15 
   50       1.950976875399e-10       1.635126392483e-14       6.615900826848e-14       0.000000000000e+00       5.143007600101e-11       6.041628888166e-12      -8.485924228002e-15 
   51       1.979067334093e-10       1.741606794390e-14       4.019732385332e-14       0.000000000000e+00       4.925200069420e-11       5.806507213811e-12      -8.678873229209e-15 
   52       2.007423236878e-10       1.852106829353e-14       1.246416012177e-14       0.000000000000e+00       4.719690605639e-11       5.584633669561e-12      -8.913978174156e-15 
   53       2.036063406444e-10       1.966651572012e-14      -1.708369446914e-14       0.000000000000e+00       4.525806127997e-11       5.375118916727e-12      -9.180901917147e-15 
   54       2.064991912116e-10       2.085262182216e-14      -4.849169571660e-14       0.000000000000e+00       4.342374736230e-11       5.176502574707e-12      -9.467183217389e-15 
   55       2.094205368843e-10       2.207952424306e-14      -8.179920819020e-14       0.000000000000e+00       4.168083207646e-11       4.987198441479e-12      -9.759585496821e-15 
   56       2.123719747308e-10       2.334717403896e-14      -1.170116417509e-13       0.000000000000e+00       4.002725549146e-11       4.807041437673e-12      -1.004878246219e-14 
   57       2.153548090989e-10       2.465541886649e-14      -1.541217235715e-13       0.000000000000e+00       3.846209515560e-11       4.636062441720e-12      -1.032564765456e-14 
   58       2.183691716243e-10       2.600403239009e-14      -1.931172754689e-13       0.000000000000e+00       3.698178885345e-11       4.474024463477e-12      -1.057984991579e-14 
   59       2.214139326355e-10       2.739271212253e-14      -2.339810704395e-13       0.000000000000e+00       3.557997159085e-11       4.320405690414e-12      -1.079980232802e-14 
   60       2.244866125574e-10       2.882107726543e-14      -2.766906891960e-13       0.000000000000e+00       3.424731257992e-11       4.174382533816e-12      -1.097261115313e-14 
   61       2.275845798426e-10       3.028865574733e-14      -3.212231421847e-13       0.000000000000e+00       3.297410557811e-11       4.035069281126e-12      -1.108701694081e-14 
   62       2.307091594044e-10       3.179484682344e-14      -3.675702725286e-13       0.000000000000e+00       3.175908812622e-11       3.902338267153e-12      -1.114310480474e-14 
   63       2.338622933476e-10       3.333894621076e-14      -4.157265715958e-13       0.000000000000e+00       3.060232161906e-11       3.776154552082e-12      -1.114469303354e-14 
   64       2.370452889883e-10       3.492015369711e-14      -4.656847261889e-13       0.000000000000e+00       2.950253847797e-11       3.656326922976e-12      -1.109657626170e-14 
   65       2.402587710784e-10       3.653757063889e-14      -5.174356262866e-13       0.000000000000e+00       2.845706649767e-11       3.542499081884e-12      -1.100456934839e-14 
   66       2.435026340306e-10       3.819019745888e-14      -5.709683727848e-13       0.000000000000e+00       2.746175319318e-11       3.434140833959e-12      -1.087555125610e-14 
   67       2.467759941430e-10       3.987693114397e-14      -6.262702852381e-13       0.000000000000e+00       2.651089014661e-11       3.330539275567e-12      -1.071750892943e-14 
   68       2.500778690762e-10       4.159665079155e-14      -6.833258138551e-13       0.000000000000e+00       2.559873685710e-11       3.230984826056e-12      -1.053846916571e-14 
   69       2.534094829545e-10       4.334849997037e-14      -7.421130021807e-13       0.000000000000e+00       2.472461995054e-11       3.135392792385e-12      -1.034294482055e-14 
   70       2.567723446593e-10       4.513165734116e-14      -8.026063182739e-13       0.000000000000e+00       2.388873604474e-11       3.043792498473e-12      -1.013484402709e-14 
   71       2.601675332511e-10       4.694525342448e-14      -8.647776671157e-13       0.000000000000e+00       2.309060954424e-11       2.956139825099e-12      -9.918533652414e-15 
   72       2.635956687938e-10       4.878837035034e-14      -9.285963703265e-13       0.000000000000e+00       2.232905789515e-11       2.872313381236e-12      -9.698854736216e-15 
   73       2.670568831794e-10       5.066004160785e-14      -9.940291458828e-13       0.000000000000e+00       2.160215684006e-11       2.792110675376e-12      -9.481137929392e-15 
   74       2.705507909527e-10       5.255925179490e-14      -1.061040087835e-12       0.000000000000e+00       2.090720567287e-11       2.715244286856e-12      -9.271218932677e-15 
   75       2.740764601356e-10       5.448493636782e-14      -1.129590646022e-12       0.000000000000e+00       2.024069249363e-11       2.641338037185e-12      -9.075453935258e-15 
   76       2.776329371302e-10       5.643594550253e-14      -1.199640907241e-12       0.000000000000e+00       1.959916550068e-11       2.570022512067e-12      -8.899422493001e-15 
   77       2.812209964264e-10       5.841092862336e-14      -1.271153753290e-12       0.000000000000e+00       1.898210710174e-11       2.501250200734e-12      -8.743728957343e-15 
   78       2.848416584382e-10       6.040842826487e-14      -1.344091427838e-12       0.000000000000e+00       1.838952322098e-11       2.435031134858e-12      -8.607459908449e-15 
   79       2.884956462059e-10       6.242691312196e-14      -1.418414308540e-12       0.000000000000e+00       1.782106785280e-11       2.371336873570e-12      -8.489417502748e-15 
   80       2.921833675826e-10       6.446477706363e-14      -1.494080913442e-12       0.000000000000e+00       1.727602689581e-11       2.310098712057e-12      -8.388107996440e-15 
   81       2.959048974204e-10       6.652033814669e-14      -1.571047907389e-12       0.000000000000e+00       1.675330198670e-11       2.251205890152e-12      -8.301730269008e-15 
   82       2.996599597569e-10       6.859183762951e-14      -1.649270108425e-12       0.000000000000e+00       1.625139433408e-11       2.194503800932e-12      -8.228164346722e-15 
   83       3.034479100015e-10       7.067743898574e-14      -1.728700494198e-12       0.000000000000e+00       1.576838855243e-11       2.139792199307e-12      -8.164959926148e-15 
   84       3.072680620381e-10       7.277528581744e-14      -1.809290216845e-12       0.000000000000e+00       1.530241780263e-11       2.086875787329e-12      -8.109686148053e-15 
   85       3.111207708588e-10       7.488368878591e-14      -1.890988636433e-12       0.000000000000e+00       1.485318322339e-11       2.035729529441e-12      -8.061072681700e-15 
   86       3.150064975816e-10       7.700096800583e-14      -1.973743304829e-12       0.000000000000e+00       1.442065792078e-11       1.986357585960e-12      -8.018037646113e-15 
   87       3.189254686530e-10       7.912539690477e-14      -2.057499964168e-12       0.000000000000e+00       1.400462009950e-11       1.938742475357e-12      -7.979337853450e-15 
   88       3.228776638306e-10       8.125520222681e-14      -2.142202553392e-12       0.000000000000e+00       1.360464498600e-11       1.892844163132e-12      -7.943563403945e-15 
   89       3.268628041671e-10       8.338856403620e-14      -2.227793214805e-12       0.000000000000e+00       1.322009675153e-11       1.848599150685e-12      -7.909132280851e-15 
   90       3.308803399929e-10       8.552361572096e-14      -2.314212300616e-12       0.000000000000e+00       1.285012043520e-11       1.805919564196e-12      -7.874284945387e-15 
   91       3.349294389000e-10       8.765844399656e-14      -2.401398379486e-12       0.000000000000e+00       1.249363386712e-11       1.764692243492e-12      -7.837078931672e-15 
   92       3.390089737251e-10       8.979108890955e-14      -2.489288243076e-12       0.000000000000e+00       1.214931959140e-11       1.724777830929e-12      -7.795383441677e-15 
   93       3.431178691721e-10       9.191957617753e-14      -2.577817669337e-12       0.000000000000e+00       1.181593720366e-11       1.686044753042e-12      -7.747376419193e-15 
   94       3.472562274159e-10       9.404201976519e-14      -2.666923829493e-12       0.000000000000e+00       1.149333164224e-11       1.648478990810e-12      -7.693133029872e-15 
   95       3.514243503597e-10       9.615653481421e-14      -2.756543256859e-12       0.000000000000e+00       1.118156231628e-11       1.612089211084e-12      -7.633267206938e-15 
   96       3.556223890811e-10       9.826120712309e-14      -2.846611139056e-12       0.000000000000e+00       1.088059257399e-11       1.576872918474e-12      -7.568451931677e-15 
   97       3.598503367382e-10       1.003540935946e-13      -2.937061334948e-12       0.000000000000e+00       1.059028602402e-11       1.542816023181e-12      -7.499420725827e-15 
   98       3.641080214761e-10       1.024332226834e-13      -3.027826391577e-12       0.000000000000e+00       1.031040285682e-11       1.509892408849e-12      -7.426969143966e-15 
   99       3.683950993332e-10       1.044965948434e-13      -3.118837561094e-12       0.000000000000e+00       1.004059616598e-11       1.478063500399e-12      -7.351956265906e-15 
  100       3.727110471473e-10       1.065421829754e-13      -3.210024817697e-12       0.000000000000e+00       9.780408269590e-12       1.447277831875e-12      -7.275306189079e-15 
  101       3.770551554622e-10       1.085679328746e-13      -3.301316874564e-12       0.000000000000e+00       9.529267031595e-12       1.417470614286e-12      -7.198009520930e-15 
  102       3.814265214336e-10       1.105717636779e-13      -3.392641200788e-12       0.000000000000e+00       9.286482183136e-12       1.388563303446e-12      -7.121124871304e-15 
  103       3.858240417357e-10       1.125515683119e-13      -3.483924038309e-12       0.000000000000e+00       9.051241643908e-12       1.360463167819e-12      -7.045780344842e-15 
  104       3.902466393527e-10       1.145052662601e-13      -3.575091158962e-12       0.000000000000e+00       8.822795463669e-12       1.333085035475e-12      -6.972945586616e-15 
  105       3.946939941234e-10       1.164309690214e-13      -3.666070215597e-12       0.000000000000e+00       8.601043868700e-12       1.306420811467e-12      -6.902709634776e-15 
  106       3.991658981171e-10       1.183268379409e-13      -3.756788741607e-12       0.000000000000e+00       8.386022163594e-12       1.280478589289e-12      -6.834907844438e-15 
  107       4.036620260921e-10       1.201910348962e-13      -3.847173463947e-12       0.000000000000e+00       8.177718607292e-12       1.255261124184e-12      -6.769341606619e-15 
